804.46256	4673
804.31984	4703
804.17712	4623
804.03439	4713
803.89167	4759
803.74893	4719
803.60619	4605
803.46345	4657
803.3207	4743
803.17795	4718
803.0352	4661
802.89244	4672
802.74967	4712
802.6069	4726
802.46413	4581
802.32135	4691
802.17856	4682
802.03578	4689
801.89298	4588
801.75019	4638
801.60738	4727
801.46458	4672
801.32177	4670
801.17895	4643
801.03613	4686
800.89331	4685
800.75048	4610
800.60765	4656
800.46481	4657
800.32197	4699
800.17912	4584
800.03627	4680
799.89341	4750
799.75055	4720
799.60769	4608
799.46482	4636
799.32195	4651
799.17907	4645
799.03618	4641
798.8933	4614
798.7504	4699
798.60751	4601
798.46461	4644
798.3217	4662
798.17879	4676
798.03588	4588
797.89296	4610
797.75003	4657
797.60711	4699
797.46417	4625
797.32124	4621
797.17829	4664
797.03535	4625
796.8924	4640
796.74944	4652
796.60648	4604
796.46352	4662
796.32055	4683
796.17757	4572
796.0346	4722
795.89161	4688
795.74863	4607
795.60564	4603
795.46264	4677
795.31964	4678
795.17663	4633
795.03362	4621
794.89061	4767
794.74759	4681
794.60457	4752
794.46154	4628
794.31851	4618
794.17547	4697
794.03243	4722
793.88938	4619
793.74633	4574
793.60328	4660
793.46022	4671
793.31716	4613
793.17409	4645
793.03101	4671
792.88794	4615
792.74485	4622
792.60177	4544
792.45868	4715
792.31558	4649
792.17248	4635
792.02938	4666
791.88627	4701
791.74315	4588
791.60003	4570
791.45691	4640
791.31378	4642
791.17065	4688
791.02752	4621
790.88438	4675
790.74123	4697
790.59808	4673
790.45493	4635
790.31177	4719
790.1686	4643
790.02544	4715
789.88226	4640
789.73909	4614
789.5959	4711
789.45272	4700
789.30953	4586
789.16633	4613
789.02313	4695
788.87993	4711
788.73672	4629
788.59351	4741
788.45029	4640
788.30707	4603
788.16384	4630
788.02061	4611
787.87737	4730
787.73413	4691
787.59089	4545
787.44764	4583
787.30438	4669
787.16112	4690
787.01786	4594
786.87459	4607
786.73132	4744
786.58805	4609
786.44476	4665
786.30148	4632
786.15819	4720
786.01489	4664
785.87159	4646
785.72829	4648
785.58498	4698
785.44167	4709
785.29835	4584
785.15503	4639
785.0117	4737
784.86837	4746
784.72504	4648
784.5817	4599
784.43835	4665
784.295	4699
784.15165	4697
784.00829	4645
783.86493	4719
783.72156	4597
783.57819	4589
783.43482	4631
783.29143	4694
783.14805	4710
783.00466	4679
782.86127	4670
782.71787	4682
782.57446	4739
782.43106	4592
782.28764	4673
782.14423	4632
782.0008	4608
781.85738	4644
781.71395	4658
781.57051	4714
781.42707	4617
781.28363	4652
781.14018	4665
780.99673	4691
780.85327	4662
780.70981	4617
780.56634	4626
780.42287	4655
780.2794	4696
780.13591	4599
779.99243	4674
779.84894	4721
779.70545	4672
779.56195	4604
779.41845	4721
779.27494	4677
779.13143	4676
778.98791	4589
778.84439	4644
778.70086	4697
778.55733	4710
778.4138	4685
778.27026	4594
778.12672	4712
777.98317	4599
777.83962	4656
777.69606	4704
777.5525	4664
777.40893	4715
777.26536	4641
777.12178	4691
776.97821	4748
776.83462	4691
776.69103	4626
776.54744	4635
776.40384	4703
776.26024	4683
776.11663	4573
775.97302	4651
775.8294	4673
775.68578	4663
775.54216	4659
775.39853	4661
775.25489	4634
775.11126	4646
774.96761	4568
774.82397	4711
774.68031	4729
774.53666	4594
774.393	4576
774.24933	4663
774.10566	4750
773.96198	4673
773.81831	4563
773.67462	4643
773.53093	4720
773.38724	4684
773.24354	4670
773.09984	4655
772.95613	4674
772.81242	4677
772.66871	4690
772.52499	4629
772.38126	4706
772.23753	4698
772.0938	4582
771.95006	4686
771.80632	4633
771.66257	4678
771.51882	4679
771.37506	4704
771.2313	4700
771.08754	4650
770.94377	4621
770.79999	4654
770.65622	4618
770.51243	4753
770.36864	4622
770.22485	4601
770.08105	4710
769.93725	4705
769.79345	4601
769.64964	4620
769.50582	4729
769.362	4782
769.21818	4639
769.07435	4641
768.93052	4723
768.78668	4654
768.64284	4648
768.49899	4717
768.35514	4731
768.21128	4705
768.06742	4621
767.92356	4710
767.77969	4709
767.63581	4664
767.49194	4650
767.34805	4627
767.20417	4735
767.06027	4649
766.91638	4607
766.77248	4645
766.62857	4718
766.48466	4644
766.34075	4626
766.19683	4715
766.0529	4696
765.90897	4618
765.76504	4661
765.6211	4752
765.47716	4693
765.33322	4687
765.18927	4659
765.04531	4647
764.90135	4737
764.75739	4722
764.61342	4638
764.46944	4678
764.32547	4673
764.18148	4697
764.0375	4658
763.8935	4660
763.74951	4699
763.60551	4671
763.4615	4639
763.31749	4696
763.17348	4683
763.02946	4653
762.88544	4665
762.74141	4635
762.59738	4641
762.45334	4674
762.3093	4652
762.16525	4637
762.0212	4701
761.87715	4663
761.73309	4708
761.58902	4718
761.44496	4696
761.30088	4674
761.15681	4662
761.01272	4620
760.86864	4637
760.72455	4658
760.58045	4588
760.43635	4650
760.29225	4725
760.14814	4703
760.00402	4628
759.8599	4645
759.71578	4709
759.57165	4658
759.42752	4724
759.28339	4704
759.13925	4756
758.9951	4637
758.85095	4649
758.7068	4614
758.56264	4648
758.41847	4668
758.27431	4664
758.13013	4657
757.98596	4697
757.84177	4729
757.69759	4706
757.5534	4605
757.4092	4756
757.265	4676
757.1208	4602
756.97659	4697
756.83238	4652
756.68816	4651
756.54394	4652
756.39971	4618
756.25548	4631
756.11124	4702
755.967	4669
755.82276	4625
755.67851	4641
755.53425	4678
755.39	4658
755.24573	4718
755.10146	4743
754.95719	4659
754.81292	4734
754.66864	4678
754.52435	4800
754.38006	4745
754.23576	4581
754.09147	4741
753.94716	4780
753.80285	4677
753.65854	4582
753.51422	4625
753.3699	4737
753.22557	4636
753.08124	4600
752.93691	4755
752.79257	4721
752.64822	4666
752.50388	4697
752.35952	4638
752.21516	4721
752.0708	4699
751.92643	4668
751.78206	4743
751.63769	4736
751.49331	4605
751.34892	4635
751.20453	4656
751.06014	4684
750.91574	4728
750.77133	4687
750.62693	4721
750.48251	4624
750.3381	4733
750.19368	4626
750.04925	4652
749.90482	4771
749.76038	4667
749.61595	4800
749.4715	4675
749.32705	4665
749.1826	4671
749.03814	4595
748.89368	4681
748.74921	4654
748.60474	4688
748.46027	4699
748.31579	4717
748.1713	4670
748.02681	4707
747.88232	4643
747.73782	4697
747.59332	4658
747.44881	4681
747.3043	4666
747.15978	4661
747.01526	4746
746.87074	4671
746.72621	4613
746.58167	4646
746.43713	4728
746.29259	4673
746.14804	4654
746.00349	4660
745.85893	4666
745.71437	4783
745.5698	4676
745.42523	4728
745.28066	4737
745.13608	4660
744.99149	4691
744.8469	4621
744.70231	4730
744.55771	4682
744.41311	4645
744.2685	4698
744.12389	4667
743.97928	4624
743.83466	4615
743.69003	4724
743.5454	4764
743.40077	4748
743.25613	4726
743.11149	4714
742.96684	4830
742.82219	4810
742.67753	4750
742.53287	4789
742.3882	4737
742.24353	4746
742.09886	4699
741.95418	4678
741.80949	4740
741.66481	4690
741.52011	4622
741.37541	4691
741.23071	4728
741.08601	4733
740.9413	4598
740.79658	4754
740.65186	4711
740.50714	4756
740.36241	4640
740.21767	4671
740.07293	4701
739.92819	4724
739.78344	4604
739.63869	4665
739.49394	4680
739.34918	4667
739.20441	4698
739.05964	4720
738.91487	4734
738.77009	4658
738.6253	4693
738.48052	4701
738.33572	4724
738.19093	4759
738.04613	4646
737.90132	4744
737.75651	4740
737.61169	4657
737.46687	4715
737.32205	4730
737.17722	4804
737.03239	4735
736.88755	4761
736.74271	4801
736.59786	4771
736.45301	4817
736.30816	4752
736.1633	4717
736.01843	4804
735.87356	4836
735.72869	4730
735.58381	4683
735.43893	4755
735.29404	4607
735.14915	4630
735.00425	4651
734.85935	4680
734.71444	4671
734.56953	4694
734.42462	4613
734.2797	4716
734.13478	4714
733.98985	4673
733.84491	4675
733.69998	4689
733.55504	4727
733.41009	4721
733.26514	4639
733.12018	4754
732.97522	4754
732.83026	4591
732.68529	4714
732.54032	4721
732.39534	4756
732.25036	4701
732.10537	4647
731.96038	4681
731.81538	4695
731.67038	4661
731.52538	4704
731.38037	4689
731.23535	4652
731.09033	4637
730.94531	4689
730.80028	4716
730.65525	4705
730.51021	4731
730.36517	4668
730.22013	4682
730.07508	4626
729.93002	4792
729.78496	4696
729.6399	4791
729.49483	4646
729.34976	4729
729.20468	4722
729.0596	4654
728.91451	4723
728.76942	4654
728.62432	4693
728.47922	4734
728.33412	4717
728.18901	4635
728.0439	4685
727.89878	4725
727.75366	4712
727.60853	4647
727.4634	4695
727.31826	4760
727.17312	4671
727.02797	4670
726.88282	4645
726.73767	4767
726.59251	4708
726.44735	4658
726.30218	4698
726.15701	4763
726.01183	4709
725.86665	4709
725.72146	4764
725.57627	4678
725.43108	4658
725.28588	4678
725.14067	4667
724.99546	4690
724.85025	4708
724.70503	4671
724.55981	4679
724.41458	4795
724.26935	4778
724.12412	4717
723.97888	4934
723.83363	4955
723.68838	5045
723.54313	5048
723.39787	5078
723.25261	5231
723.10734	5139
722.96207	5060
722.81679	4982
722.67151	4991
722.52622	4887
722.38093	4868
722.23564	4763
722.09034	4718
721.94504	4687
721.79973	4648
721.65442	4638
721.5091	4762
721.36378	4720
721.21845	4650
721.07312	4729
720.92778	4689
720.78244	4726
720.6371	4643
720.49175	4708
720.3464	4733
720.20104	4718
720.05568	4686
719.91031	4765
719.76494	4757
719.61956	4716
719.47418	4690
719.3288	4724
719.18341	4699
719.03801	4754
718.89261	4632
718.74721	4829
718.6018	4684
718.45639	4694
718.31097	4698
718.16555	4702
718.02013	4703
717.8747	4720
717.72926	4630
717.58382	4745
717.43838	4732
717.29293	4675
717.14748	4740
717.00202	4724
716.85656	4799
716.71109	4695
716.56562	4701
716.42014	4753
716.27466	4745
716.12918	4766
715.98369	4772
715.83819	4733
715.6927	4861
715.54719	4792
715.40169	4663
715.25617	4735
715.11066	4713
714.96514	4840
714.81961	4712
714.67408	4649
714.52855	4779
714.38301	4685
714.23746	4693
714.09192	4765
713.94636	4838
713.80081	4760
713.65524	4652
713.50968	4718
713.36411	4776
713.21853	4822
713.07295	4644
712.92737	4732
712.78178	4745
712.63619	4747
712.49059	4729
712.34499	4756
712.19938	4770
712.05377	4699
711.90815	4701
711.76253	4707
711.61691	4793
711.47128	4781
711.32564	4731
711.18	4665
711.03436	4728
710.88871	4735
710.74306	4625
710.59741	4726
710.45174	4784
710.30608	4771
710.16041	4714
710.01473	4802
709.86905	4732
709.72337	4785
709.57768	4688
709.43199	4693
709.28629	4795
709.14059	4770
708.99488	4745
708.84917	4714
708.70346	4857
708.55774	4744
708.41201	4704
708.26628	4751
708.12055	4730
707.97481	4756
707.82907	4719
707.68332	4759
707.53757	4789
707.39181	4702
707.24605	4708
707.10029	4708
706.95452	4794
706.80874	4777
706.66297	4754
706.51718	4780
706.37139	4768
706.2256	4725
706.0798	4773
705.934	4734
705.7882	4791
705.64239	4779
705.49657	4714
705.35075	4758
705.20493	4776
705.0591	4791
704.91327	4774
704.76743	4795
704.62159	4859
704.47574	4784
704.32989	4817
704.18403	4792
704.03817	4735
703.89231	4766
703.74644	4687
703.60056	4831
703.45469	4756
703.3088	4829
703.16292	4764
703.01702	4805
702.87113	4940
702.72523	5059
702.57932	5099
702.43341	5267
702.2875	5223
702.14158	5321
701.99565	5390
701.84973	5391
701.70379	5334
701.55786	5172
701.41191	5098
701.26597	5086
701.12002	5065
700.97406	4928
700.8281	4844
700.68214	4806
700.53617	4807
700.39019	4694
700.24422	4784
700.09823	4727
699.95225	4701
699.80626	4769
699.66026	4764
699.51426	4766
699.36825	4813
699.22224	4750
699.07623	4711
698.93021	4863
698.78419	4763
698.63816	4767
698.49213	4804
698.34609	4754
698.20005	4864
698.05401	4750
697.90795	4768
697.7619	4696
697.61584	4755
697.46978	4760
697.32371	4789
697.17764	4743
697.03156	4842
696.88548	4777
696.73939	4701
696.5933	4777
696.4472	4866
696.3011	4791
696.155	4756
696.00889	4809
695.86278	4780
695.71666	4797
695.57053	4755
695.42441	4789
695.27828	4791
695.13214	4815
694.986	4727
694.83985	4816
694.6937	4819
694.54755	4700
694.40139	4778
694.25523	4812
694.10906	4858
693.96289	4810
693.81671	4790
693.67053	4801
693.52434	4737
693.37815	4828
693.23196	4792
693.08576	4757
692.93955	4816
692.79334	4846
692.64713	4784
692.50091	4809
692.35469	4881
692.20846	4916
692.06223	4838
691.916	4928
691.76976	5045
691.62351	4900
691.47726	4904
691.33101	4898
691.18475	4898
691.03849	4872
690.89222	4810
690.74595	4772
690.59967	4809
690.45339	4815
690.3071	4747
690.16081	4752
690.01452	4841
689.86822	4757
689.72192	4817
689.57561	4743
689.42929	4815
689.28298	4826
689.13666	4738
688.99033	4730
688.844	4855
688.69766	4769
688.55132	4728
688.40498	4755
688.25863	4805
688.11228	4812
687.96592	4778
687.81956	4753
687.67319	4812
687.52682	4818
687.38044	4758
687.23406	4758
687.08768	4845
686.94129	4766
686.79489	4785
686.64849	4825
686.50209	4846
686.35568	4818
686.20927	4764
686.06285	4825
685.91643	4772
685.77001	4813
685.62357	4824
685.47714	4839
685.3307	4816
685.18426	4814
685.03781	4792
684.89136	4745
684.7449	4811
684.59844	4778
684.45197	4803
684.3055	4796
684.15902	4791
684.01254	4859
683.86606	4797
683.71957	4728
683.57307	4850
683.42658	4729
683.28007	4728
683.13357	4764
682.98705	4775
682.84054	4889
682.69402	4786
682.54749	4825
682.40096	4836
682.25443	4781
682.10789	4801
681.96134	4848
681.8148	4832
681.66824	4812
681.52169	4696
681.37513	4774
681.22856	4865
681.08199	4862
680.93541	4795
680.78883	4759
680.64225	4958
680.49566	4838
680.34907	4772
680.20247	4866
680.05587	4771
679.90926	4833
679.76265	4752
679.61603	4841
679.46941	4904
679.32279	4778
679.17616	4781
679.02952	4906
678.88289	4950
678.73624	4839
678.58959	4721
678.44294	4798
678.29629	4854
678.14962	4886
678.00296	4758
677.85629	4826
677.70961	4875
677.56293	4796
677.41625	4761
677.26956	4827
677.12287	4800
676.97617	4853
676.82947	4785
676.68276	4810
676.53605	4877
676.38934	4764
676.24262	4738
676.09589	4846
675.94916	4841
675.80243	4776
675.65569	4788
675.50895	4774
675.3622	4810
675.21545	4875
675.0687	4772
674.92193	4819
674.77517	4856
674.6284	4769
674.48163	4751
674.33485	4858
674.18806	4897
674.04128	4834
673.89448	4813
673.74769	4803
673.60088	4945
673.45408	4836
673.30727	4773
673.16045	4848
673.01363	4863
672.86681	4902
672.71998	4864
672.57315	4827
672.42631	4926
672.27947	4883
672.13262	4801
671.98577	4843
671.83891	4908
671.69205	4896
671.54519	4828
671.39832	4863
671.25145	4954
671.10457	4962
670.95768	4995
670.8108	4948
670.66391	4876
670.51701	4937
670.37011	4899
670.2232	4980
670.07629	5054
669.92938	4950
669.78246	4884
669.63554	4954
669.48861	5000
669.34167	4911
669.19474	4860
669.0478	4894
668.90085	4885
668.7539	4844
668.60694	4862
668.45998	4844
668.31302	4842
668.16605	4869
668.01908	4852
667.8721	4844
667.72512	4924
667.57813	4888
667.43114	4915
667.28414	4900
667.13714	4929
666.99014	4915
666.84313	4920
666.69611	4899
666.54909	4900
666.40207	4991
666.25504	4897
666.10801	4879
665.96097	4887
665.81393	4901
665.66689	4888
665.51984	4929
665.37278	4883
665.22572	4852
665.07866	4913
664.93159	4870
664.78452	4942
664.63744	4900
664.49036	4854
664.34327	4885
664.19618	4899
664.04909	4916
663.90199	4950
663.75488	4895
663.60777	4948
663.46066	4997
663.31354	4963
663.16642	4988
663.01929	5072
662.87216	5001
662.72502	5116
662.57788	5141
662.43074	5037
662.28359	5032
662.13643	4996
661.98927	5000
661.84211	4996
661.69494	5034
661.54777	4936
661.40059	5061
661.25341	4976
661.10622	4904
660.95903	4885
660.81184	4940
660.66464	4943
660.51744	4894
660.37023	4872
660.22301	4903
660.0758	4931
659.92857	4985
659.78135	4909
659.63412	4979
659.48688	4998
659.33964	4947
659.19239	4983
659.04514	4958
658.89789	5024
658.75063	4982
658.60337	4998
658.4561	4990
658.30883	5033
658.16155	4921
658.01427	4883
657.86699	4918
657.7197	5042
657.5724	4875
657.4251	4825
657.2778	4915
657.13049	4835
656.98318	4918
656.83586	4841
656.68854	4941
656.54121	4875
656.39388	4978
656.24655	4869
656.09921	4938
655.95186	4960
655.80451	4872
655.65716	4887
655.5098	4917
655.36244	4842
655.21507	4916
655.0677	4841
654.92032	4862
654.77294	5012
654.62556	4945
654.47817	4834
654.33078	4862
654.18338	4876
654.03597	4857
653.88857	4836
653.74115	4846
653.59374	4882
653.44632	4912
653.29889	4813
653.15146	4846
653.00402	4944
652.85658	4950
652.70914	4917
652.56169	4883
652.41424	5002
652.26678	4916
652.11932	4891
651.97185	4950
651.82438	4853
651.67691	4916
651.52943	4846
651.38194	4883
651.23445	4943
651.08696	4871
650.93946	4871
650.79196	4962
650.64445	4965
650.49694	4979
650.34942	4870
650.2019	4936
650.05438	4997
649.90685	5019
649.75931	5013
649.61177	4925
649.46423	4945
649.31668	5063
649.16913	4913
649.02157	4993
648.87401	5023
648.72644	5043
648.57887	4869
648.4313	4938
648.28372	4961
648.13613	4879
647.98855	4870
647.84095	4973
647.69335	5030
647.54575	5005
647.39814	4935
647.25053	5042
647.10292	5033
646.9553	5135
646.80767	5024
646.66004	5055
646.51241	5105
646.36477	5093
646.21713	5041
646.06948	5058
645.92183	4984
645.77417	5047
645.62651	4981
645.47884	4932
645.33117	5002
645.1835	4975
645.03582	4857
644.88814	4943
644.74045	4983
644.59276	4993
644.44506	4960
644.29736	4965
644.14965	4966
644.00194	4997
643.85422	4982
643.7065	5118
643.55878	5144
643.41105	5170
643.26332	5263
643.11558	5324
642.96784	5396
642.82009	5440
642.67234	5443
642.52458	5500
642.37682	5589
642.22905	5518
642.08128	5487
641.93351	5558
641.78573	5424
641.63795	5412
641.49016	5241
641.34237	5179
641.19457	5189
641.04677	5095
640.89896	5001
640.75115	4998
640.60334	4986
640.45552	5005
640.3077	5008
640.15987	5087
640.01203	5031
639.8642	5012
639.71635	4974
639.56851	4995
639.42066	5034
639.2728	5032
639.12494	4963
638.97708	5032
638.82921	4951
638.68133	5074
638.53345	4955
638.38557	4929
638.23768	5020
638.08979	5011
637.9419	4946
637.79399	4962
637.64609	4920
637.49818	4927
637.35026	4747
637.20235	4857
637.05442	4825
636.90649	4821
636.75856	4782
636.61062	4800
636.46268	4818
636.31474	4727
636.16678	4778
636.01883	4695
635.87087	4744
635.72291	4735
635.57494	4614
635.42696	4655
635.27899	4633
635.131	4665
634.98302	4579
634.83502	4676
634.68703	4724
634.53903	4600
634.39102	4642
634.24301	4592
634.095	4697
633.94698	4711
633.79896	4673
633.65093	4768
633.5029	4716
633.35486	4767
633.20682	4850
633.05877	5084
632.91072	5087
632.76267	5194
632.61461	5259
632.46655	5289
632.31848	5326
632.1704	5460
632.02233	5212
631.87425	5252
631.72616	5137
631.57807	5200
631.42997	5115
631.28187	5032
631.13377	4992
630.98566	4932
630.83755	4833
630.68943	4849
630.5413	4755
630.39318	4721
630.24505	4679
630.09691	4620
629.94877	4647
629.80062	4643
629.65247	4568
629.50432	4619
629.35616	4667
629.208	4688
629.05983	4565
628.91166	4643
628.76348	4751
628.6153	4584
628.46711	4663
628.31892	4613
628.17073	4689
628.02253	4607
627.87432	4568
627.72611	4672
627.5779	4621
627.42968	4618
627.28146	4561
627.13323	4644
626.985	4696
626.83677	4653
626.68853	4548
626.54028	4696
626.39203	4659
626.24378	4694
626.09552	4602
625.94726	4631
625.79899	4680
625.65072	4683
625.50244	4681
625.35416	4640
625.20587	4680
625.05758	4668
624.90929	4630
624.76099	4672
624.61269	4684
624.46438	4625
624.31607	4596
624.16775	4665
624.01943	4695
623.8711	4673
623.72277	4646
623.57443	4661
623.42609	4632
623.27775	4656
623.1294	4643
622.98105	4648
622.83269	4621
622.68433	4611
622.53596	4614
622.38759	4626
622.23921	4704
622.09083	4690
621.94245	4619
621.79406	4646
621.64566	4699
621.49726	4676
621.34886	4683
621.20045	4674
621.05204	4750
620.90362	4765
620.7552	4690
620.60678	4737
620.45835	4605
620.30991	4753
620.16147	4645
620.01303	4648
619.86458	4720
619.71613	4683
619.56767	4643
619.41921	4698
619.27074	4690
619.12227	4681
618.97379	4620
618.82531	4614
618.67683	4681
618.52834	4619
618.37985	4549
618.23135	4629
618.08285	4834
617.93434	4635
617.78583	4610
617.63731	4609
617.48879	4634
617.34026	4627
617.19173	4701
617.0432	4644
616.89466	4690
616.74612	4633
616.59757	4608
616.44902	4636
616.30046	4694
616.1519	4629
616.00333	4622
615.85476	4590
615.70619	4608
615.55761	4621
615.40902	4605
615.26043	4570
615.11184	4643
614.96324	4657
614.81464	4496
614.66603	4612
614.51742	4658
614.36881	4581
614.22019	4614
614.07156	4662
613.92293	4590
613.7743	4620
613.62566	4592
613.47702	4674
613.32837	4680
613.17972	4675
613.03106	4629
612.8824	4558
612.73373	4598
612.58506	4666
612.43639	4574
612.28771	4565
612.13903	4626
611.99034	4625
611.84164	4573
611.69295	4620
611.54425	4621
611.39554	4594
611.24683	4578
611.09811	4641
610.94939	4609
610.80067	4595
610.65194	4609
610.50321	4628
610.35447	4626
610.20573	4659
610.05698	4553
609.90823	4551
609.75947	4675
609.61071	4627
609.46194	4521
609.31317	4685
609.1644	4650
609.01562	4599
608.86684	4594
608.71805	4537
608.56926	4693
608.42046	4548
608.27166	4563
608.12285	4554
607.97404	4570
607.82523	4563
607.67641	4569
607.52759	4586
607.37876	4634
607.22992	4648
607.08109	4552
606.93224	4588
606.7834	4594
606.63455	4593
606.48569	4535
606.33683	4631
606.18797	4610
606.0391	4649
605.89022	4601
605.74134	4600
605.59246	4561
605.44357	4562
605.29468	4587
605.14579	4568
604.99688	4642
604.84798	4619
604.69907	4564
604.55015	4600
604.40124	4566
604.25231	4604
604.10338	4602
603.95445	4586
603.80551	4605
603.65657	4583
603.50763	4632
603.35868	4587
603.20972	4705
603.06076	4643
602.9118	4510
602.76283	4586
602.61385	4550
602.46488	4554
602.31589	4541
602.16691	4682
602.01792	4648
601.86892	4609
601.71992	4632
601.57091	4606
601.4219	4567
601.27289	4575
601.12387	4608
600.97485	4605
600.82582	4609
600.67679	4578
600.52775	4616
600.37871	4577
600.22967	4645
600.08062	4572
599.93156	4576
599.7825	4506
599.63344	4652
599.48437	4607
599.3353	4604
599.18622	4580
599.03714	4591
598.88805	4586
598.73896	4550
598.58986	4595
598.44076	4647
598.29166	4601
598.14255	4499
597.99344	4602
597.84432	4594
597.6952	4626
597.54607	4540
597.39694	4560
597.2478	4636
597.09866	4610
596.94951	4558
596.80036	4606
596.65121	4581
596.50205	4560
596.35289	4635
596.20372	4558
596.05455	4658
595.90537	4676
595.75619	4601
595.607	4564
595.45781	4586
595.30862	4591
595.15942	4586
595.01021	4503
594.86101	4629
594.71179	4663
594.56257	4509
594.41335	4574
594.26413	4564
594.11489	4573
593.96566	4599
593.81642	4591
593.66717	4662
593.51792	4506
593.36867	4661
593.21941	4597
593.07015	4635
592.92088	4544
592.77161	4601
592.62233	4596
592.47305	4544
592.32377	4584
592.17448	4536
592.02518	4615
591.87588	4589
591.72658	4611
591.57727	4556
591.42796	4616
591.27864	4643
591.12932	4601
590.97999	4592
590.83066	4571
590.68133	4585
590.53199	4577
590.38264	4553
590.23329	4576
590.08394	4563
589.93458	4635
589.78522	4560
589.63585	4603
589.48648	4608
589.33711	4655
589.18772	4555
589.03834	4582
588.88895	4548
588.73956	4634
588.59016	4494
588.44075	4572
588.29135	4589
588.14193	4591
587.99252	4598
587.8431	4590
587.69367	4550
587.54424	4646
587.39481	4561
587.24537	4610
587.09592	4625
586.94647	4651
586.79702	4616
586.64756	4561
586.4981	4682
586.34863	4581
586.19916	4515
586.04969	4559
585.90021	4568
585.75072	4607
585.60123	4587
585.45174	4519
585.30224	4618
585.15274	4659
585.00323	4525
584.85372	4633
584.7042	4508
584.55468	4611
584.40516	4575
584.25563	4560
584.10609	4593
583.95655	4582
583.80701	4531
583.65746	4550
583.50791	4597
583.35835	4571
583.20879	4635
583.05923	4564
582.90966	4561
582.76008	4603
582.6105	4558
582.46092	4594
582.31133	4662
582.16173	4640
582.01214	4542
581.86253	4558
581.71293	4546
581.56332	4652
581.4137	4544
581.26408	4650
581.11445	4665
580.96483	4578
580.81519	4589
580.66555	4599
580.51591	4609
580.36626	4589
580.21661	4550
580.06695	4637
579.91729	4634
579.76763	4600
579.61796	4491
579.46828	4588
579.3186	4562
579.16892	4571
579.01923	4649
578.86954	4559
578.71984	4559
578.57014	4604
578.42043	4537
578.27072	4570
578.12101	4626
577.97129	4619
577.82156	4531
577.67183	4528
577.5221	4603
577.37236	4569
577.22262	4563
577.07287	4562
576.92312	4577
576.77336	4590
576.6236	4560
576.47384	4585
576.32407	4577
576.17429	4645
576.02452	4555
575.87473	4651
575.72494	4637
575.57515	4545
575.42536	4567
575.27555	4590
575.12575	4648
574.97594	4561
574.82612	4591
574.6763	4540
574.52648	4553
574.37665	4594
574.22682	4515
574.07698	4609
573.92714	4578
573.77729	4579
573.62744	4537
573.47758	4606
573.32772	4566
573.17786	4607
573.02799	4571
572.87812	4544
572.72824	4589
572.57836	4579
572.42847	4533
572.27858	4558
572.12868	4651
571.97878	4501
571.82887	4604
571.67896	4596
571.52905	4540
571.37913	4600
571.22921	4559
571.07928	4568
570.92935	4639
570.77941	4535
570.62947	4609
570.47952	4525
570.32957	4592
570.17962	4635
570.02966	4567
569.87969	4559
569.72972	4569
569.57975	4611
569.42977	4546
569.27979	4503
569.1298	4629
568.97981	4630
568.82981	4559
568.67981	4568
568.52981	4593
568.3798	4594
568.22979	4572
568.07977	4616
567.92974	4658
567.77972	4648
567.62968	4614
567.47965	4602
567.32961	4666
567.17956	4542
567.02951	4566
566.87946	4546
566.7294	4587
566.57933	4576
566.42926	4506
566.27919	4576
566.12911	4542
565.97903	4630
565.82895	4542
565.67885	4597
565.52876	4616
565.37866	4620
565.22855	4565
565.07845	4606
564.92833	4580
564.77821	4591
564.62809	4575
564.47796	4661
564.32783	4682
564.1777	4603
564.02756	4614
563.87741	4617
563.72726	4694
563.57711	4637
563.42695	4659
563.27678	4572
563.12662	4632
562.97644	4721
