804.46256	4697
804.31984	4689
804.17712	4677
804.03439	4674
803.89167	4683
803.74893	4712
803.60619	4601
803.46345	4662
803.3207	4673
803.17795	4765
803.0352	4636
802.89244	4707
802.74967	4731
802.6069	4665
802.46413	4617
802.32135	4635
802.17856	4683
802.03578	4657
801.89298	4610
801.75019	4652
801.60738	4665
801.46458	4617
801.32177	4550
801.17895	4569
801.03613	4663
800.89331	4620
800.75048	4597
800.60765	4660
800.46481	4693
800.32197	4631
800.17912	4619
800.03627	4650
799.89341	4677
799.75055	4677
799.60769	4656
799.46482	4620
799.32195	4698
799.17907	4714
799.03618	4585
798.8933	4622
798.7504	4687
798.60751	4666
798.46461	4576
798.3217	4640
798.17879	4694
798.03588	4706
797.89296	4574
797.75003	4633
797.60711	4707
797.46417	4686
797.32124	4576
797.17829	4595
797.03535	4668
796.8924	4652
796.74944	4566
796.60648	4623
796.46352	4669
796.32055	4649
796.17757	4596
796.0346	4637
795.89161	4656
795.74863	4658
795.60564	4618
795.46264	4552
795.31964	4622
795.17663	4688
795.03362	4569
794.89061	4652
794.74759	4697
794.60457	4677
794.46154	4554
794.31851	4663
794.17547	4686
794.03243	4639
793.88938	4647
793.74633	4641
793.60328	4698
793.46022	4647
793.31716	4553
793.17409	4643
793.03101	4680
792.88794	4691
792.74485	4594
792.60177	4543
792.45868	4606
792.31558	4694
792.17248	4566
792.02938	4671
791.88627	4601
791.74315	4647
791.60003	4552
791.45691	4574
791.31378	4729
791.17065	4692
791.02752	4606
790.88438	4587
790.74123	4662
790.59808	4696
790.45493	4662
790.31177	4615
790.1686	4687
790.02544	4650
789.88226	4545
789.73909	4639
789.5959	4751
789.45272	4655
789.30953	4577
789.16633	4661
789.02313	4652
788.87993	4696
788.73672	4596
788.59351	4643
788.45029	4651
788.30707	4671
788.16384	4587
788.02061	4618
787.87737	4708
787.73413	4695
787.59089	4638
787.44764	4604
787.30438	4717
787.16112	4584
787.01786	4581
786.87459	4646
786.73132	4813
786.58805	4690
786.44476	4617
786.30148	4566
786.15819	4583
786.01489	4671
785.87159	4650
785.72829	4625
785.58498	4684
785.44167	4684
785.29835	4651
785.15503	4638
785.0117	4693
784.86837	4804
784.72504	4657
784.5817	4599
784.43835	4708
784.295	4650
784.15165	4611
784.00829	4717
783.86493	4695
783.72156	4714
783.57819	4608
783.43482	4642
783.29143	4667
783.14805	4815
783.00466	4625
782.86127	4648
782.71787	4717
782.57446	4783
782.43106	4648
782.28764	4651
782.14423	4711
782.0008	4685
781.85738	4617
781.71395	4646
781.57051	4715
781.42707	4658
781.28363	4645
781.14018	4681
780.99673	4706
780.85327	4789
780.70981	4616
780.56634	4744
780.42287	4803
780.2794	4799
780.13591	4725
779.99243	4803
779.84894	4884
779.70545	4951
779.56195	4921
779.41845	4912
779.27494	4921
779.13143	4867
778.98791	4756
778.84439	4846
778.70086	4833
778.55733	4797
778.4138	4685
778.27026	4660
778.12672	4648
777.98317	4659
777.83962	4585
777.69606	4644
777.5525	4712
777.40893	4689
777.26536	4531
777.12178	4653
776.97821	4733
776.83462	4698
776.69103	4637
776.54744	4652
776.40384	4658
776.26024	4602
776.11663	4530
775.97302	4652
775.8294	4599
775.68578	4656
775.54216	4563
775.39853	4607
775.25489	4670
775.11126	4658
774.96761	4524
774.82397	4642
774.68031	4633
774.53666	4582
774.393	4605
774.24933	4578
774.10566	4784
773.96198	4600
773.81831	4570
773.67462	4543
773.53093	4622
773.38724	4579
773.24354	4570
773.09984	4667
772.95613	4665
772.81242	4640
772.66871	4578
772.52499	4611
772.38126	4616
772.23753	4684
772.0938	4592
771.95006	4583
771.80632	4672
771.66257	4648
771.51882	4542
771.37506	4609
771.2313	4591
771.08754	4641
770.94377	4603
770.79999	4569
770.65622	4647
770.51243	4659
770.36864	4607
770.22485	4626
770.08105	4723
769.93725	4611
769.79345	4595
769.64964	4612
769.50582	4692
769.362	4680
769.21818	4612
769.07435	4619
768.93052	4678
768.78668	4669
768.64284	4572
768.49899	4576
768.35514	4698
768.21128	4710
768.06742	4600
767.92356	4580
767.77969	4669
767.63581	4675
767.49194	4581
767.34805	4656
767.20417	4650
767.06027	4663
766.91638	4599
766.77248	4626
766.62857	4687
766.48466	4581
766.34075	4595
766.19683	4613
766.0529	4623
765.90897	4615
765.76504	4636
765.6211	4626
765.47716	4671
765.33322	4665
765.18927	4596
765.04531	4581
764.90135	4704
764.75739	4756
764.61342	4601
764.46944	4596
764.32547	4611
764.18148	4599
764.0375	4581
763.8935	4596
763.74951	4721
763.60551	4672
763.4615	4573
763.31749	4602
763.17348	4624
763.02946	4684
762.88544	4599
762.74141	4618
762.59738	4680
762.45334	4689
762.3093	4600
762.16525	4610
762.0212	4745
761.87715	4688
761.73309	4613
761.58902	4642
761.44496	4649
761.30088	4629
761.15681	4679
761.01272	4571
760.86864	4671
760.72455	4602
760.58045	4598
760.43635	4657
760.29225	4698
760.14814	4703
760.00402	4611
759.8599	4612
759.71578	4541
759.57165	4629
759.42752	4608
759.28339	4589
759.13925	4728
758.9951	4641
758.85095	4633
758.7068	4594
758.56264	4641
758.41847	4687
758.27431	4624
758.13013	4618
757.98596	4733
757.84177	4690
757.69759	4684
757.5534	4711
757.4092	4786
757.265	4757
757.1208	4667
756.97659	4658
756.83238	4738
756.68816	4653
756.54394	4600
756.39971	4674
756.25548	4684
756.11124	4649
755.967	4610
755.82276	4560
755.67851	4661
755.53425	4685
755.39	4620
755.24573	4640
755.10146	4597
754.95719	4633
754.81292	4623
754.66864	4652
754.52435	4670
754.38006	4702
754.23576	4593
754.09147	4699
753.94716	4712
753.80285	4673
753.65854	4505
753.51422	4650
753.3699	4673
753.22557	4593
753.08124	4601
752.93691	4692
752.79257	4696
752.64822	4637
752.50388	4650
752.35952	4632
752.21516	4758
752.0708	4639
751.92643	4580
751.78206	4647
751.63769	4744
751.49331	4625
751.34892	4578
751.20453	4646
751.06014	4655
750.91574	4653
750.77133	4572
750.62693	4573
750.48251	4713
750.3381	4574
750.19368	4562
750.04925	4606
749.90482	4718
749.76038	4588
749.61595	4727
749.4715	4643
749.32705	4606
749.1826	4668
749.03814	4622
748.89368	4622
748.74921	4590
748.60474	4622
748.46027	4548
748.31579	4638
748.1713	4678
748.02681	4658
747.88232	4519
747.73782	4644
747.59332	4618
747.44881	4647
747.3043	4594
747.15978	4668
747.01526	4583
746.87074	4596
746.72621	4569
746.58167	4619
746.43713	4651
746.29259	4639
746.14804	4601
746.00349	4595
745.85893	4550
745.71437	4606
745.5698	4564
745.42523	4672
745.28066	4663
745.13608	4651
744.99149	4545
744.8469	4627
744.70231	4636
744.55771	4620
744.41311	4606
744.2685	4624
744.12389	4658
743.97928	4618
743.83466	4523
743.69003	4685
743.5454	4627
743.40077	4706
743.25613	4608
743.11149	4681
742.96684	4817
742.82219	4747
742.67753	4724
742.53287	4735
742.3882	4775
742.24353	4693
742.09886	4648
741.95418	4656
741.80949	4717
741.66481	4581
741.52011	4580
741.37541	4610
741.23071	4633
741.08601	4635
740.9413	4570
740.79658	4643
740.65186	4633
740.50714	4660
740.36241	4595
740.21767	4580
740.07293	4640
739.92819	4733
739.78344	4528
739.63869	4700
739.49394	4667
739.34918	4590
739.20441	4590
739.05964	4612
738.91487	4669
738.77009	4657
738.6253	4566
738.48052	4567
738.33572	4650
738.19093	4625
738.04613	4558
737.90132	4591
737.75651	4592
737.61169	4676
737.46687	4585
737.32205	4594
737.17722	4718
737.03239	4641
736.88755	4567
736.74271	4564
736.59786	4655
736.45301	4672
736.30816	4644
736.1633	4615
736.01843	4609
735.87356	4775
735.72869	4581
735.58381	4691
735.43893	4683
735.29404	4597
735.14915	4586
735.00425	4561
734.85935	4656
734.71444	4686
734.56953	4599
734.42462	4578
734.2797	4707
734.13478	4658
733.98985	4578
733.84491	4681
733.69998	4649
733.55504	4623
733.41009	4636
733.26514	4599
733.12018	4664
732.97522	4674
732.83026	4597
732.68529	4542
732.54032	4576
732.39534	4673
732.25036	4603
732.10537	4556
731.96038	4646
731.81538	4642
731.67038	4569
731.52538	4638
731.38037	4641
731.23535	4624
731.09033	4567
730.94531	4602
730.80028	4641
730.65525	4648
730.51021	4622
730.36517	4593
730.22013	4604
730.07508	4707
729.93002	4623
729.78496	4552
729.6399	4681
729.49483	4642
729.34976	4566
729.20468	4623
729.0596	4702
728.91451	4638
728.76942	4618
728.62432	4630
728.47922	4619
728.33412	4734
728.18901	4614
728.0439	4628
727.89878	4690
727.75366	4628
727.60853	4545
727.4634	4629
727.31826	4662
727.17312	4691
727.02797	4596
726.88282	4616
726.73767	4635
726.59251	4638
726.44735	4608
726.30218	4603
726.15701	4630
726.01183	4637
725.86665	4671
725.72146	4615
725.57627	4642
725.43108	4731
725.28588	4595
725.14067	4608
724.99546	4665
724.85025	4697
724.70503	4596
724.55981	4622
724.41458	4699
724.26935	4728
724.12412	4687
723.97888	4777
723.83363	4916
723.68838	4913
723.54313	4890
723.39787	5080
723.25261	5120
723.10734	5113
722.96207	5028
722.81679	4988
722.67151	4913
722.52622	4915
722.38093	4795
722.23564	4724
722.09034	4761
721.94504	4670
721.79973	4659
721.65442	4612
721.5091	4596
721.36378	4649
721.21845	4641
721.07312	4660
720.92778	4593
720.78244	4660
720.6371	4571
720.49175	4622
720.3464	4633
720.20104	4708
720.05568	4598
719.91031	4592
719.76494	4771
719.61956	4668
719.47418	4562
719.3288	4613
719.18341	4637
719.03801	4714
718.89261	4603
718.74721	4746
718.6018	4641
718.45639	4648
718.31097	4676
718.16555	4599
718.02013	4716
717.8747	4705
717.72926	4631
717.58382	4615
717.43838	4716
717.29293	4612
717.14748	4677
717.00202	4636
716.85656	4756
716.71109	4754
716.56562	4631
716.42014	4676
716.27466	4731
716.12918	4710
715.98369	4674
715.83819	4670
715.6927	4667
715.54719	4742
715.40169	4605
715.25617	4691
715.11066	4713
714.96514	4679
714.81961	4610
714.67408	4632
714.52855	4669
714.38301	4649
714.23746	4620
714.09192	4608
713.94636	4716
713.80081	4637
713.65524	4586
713.50968	4607
713.36411	4733
713.21853	4659
713.07295	4575
712.92737	4674
712.78178	4631
712.63619	4683
712.49059	4626
712.34499	4622
712.19938	4695
712.05377	4616
711.90815	4536
711.76253	4617
711.61691	4729
711.47128	4654
711.32564	4622
711.18	4605
711.03436	4660
710.88871	4683
710.74306	4614
710.59741	4680
710.45174	4843
710.30608	4658
710.16041	4608
710.01473	4660
709.86905	4678
709.72337	4679
709.57768	4603
709.43199	4586
709.28629	4701
709.14059	4727
708.99488	4623
708.84917	4638
708.70346	4697
708.55774	4705
708.41201	4723
708.26628	4537
708.12055	4647
707.97481	4705
707.82907	4555
707.68332	4620
707.53757	4681
707.39181	4698
707.24605	4622
707.10029	4614
706.95452	4765
706.80874	4646
706.66297	4590
706.51718	4659
706.37139	4683
706.2256	4710
706.0798	4541
705.934	4657
705.7882	4643
705.64239	4649
705.49657	4615
705.35075	4647
705.20493	4723
705.0591	4636
704.91327	4648
704.76743	4694
704.62159	4704
704.47574	4662
704.32989	4635
704.18403	4670
704.03817	4650
703.89231	4732
703.74644	4679
703.60056	4701
703.45469	4745
703.3088	4669
703.16292	4733
703.01702	4721
702.87113	4809
702.72523	4949
702.57932	5032
702.43341	5173
702.2875	5170
702.14158	5249
701.99565	5241
701.84973	5297
701.70379	5366
701.55786	5271
701.41191	5049
701.26597	5029
701.12002	5047
700.97406	4933
700.8281	4846
700.68214	4720
700.53617	4733
700.39019	4723
700.24422	4705
700.09823	4690
699.95225	4733
699.80626	4746
699.66026	4590
699.51426	4688
699.36825	4739
699.22224	4696
699.07623	4770
698.93021	4713
698.78419	4717
698.63816	4748
698.49213	4649
698.34609	4656
698.20005	4702
698.05401	4734
697.90795	4622
697.7619	4676
697.61584	4723
697.46978	4715
697.32371	4602
697.17764	4677
697.03156	4630
696.88548	4734
696.73939	4655
696.5933	4724
696.4472	4699
696.3011	4774
696.155	4701
696.00889	4736
695.86278	4723
695.71666	4683
695.57053	4660
695.42441	4693
695.27828	4722
695.13214	4750
694.986	4645
694.83985	4698
694.6937	4715
694.54755	4740
694.40139	4777
694.25523	4766
694.10906	4824
693.96289	4763
693.81671	4772
693.67053	4776
693.52434	4773
693.37815	4821
693.23196	4715
693.08576	4798
692.93955	4804
692.79334	4792
692.64713	4719
692.50091	4796
692.35469	4859
692.20846	4827
692.06223	4789
691.916	4854
691.76976	4924
691.62351	4888
691.47726	4825
691.33101	4803
691.18475	4855
691.03849	4848
690.89222	4815
690.74595	4711
690.59967	4736
690.45339	4674
690.3071	4656
690.16081	4695
690.01452	4727
689.86822	4688
689.72192	4660
689.57561	4697
689.42929	4716
689.28298	4727
689.13666	4627
688.99033	4700
688.844	4725
688.69766	4769
688.55132	4644
688.40498	4668
688.25863	4671
688.11228	4736
687.96592	4733
687.81956	4694
687.67319	4781
687.52682	4727
687.38044	4654
687.23406	4660
687.08768	4800
686.94129	4718
686.79489	4612
686.64849	4724
686.50209	4802
686.35568	4724
686.20927	4659
686.06285	4669
685.91643	4736
685.77001	4657
685.62357	4681
685.47714	4673
685.3307	4785
685.18426	4705
685.03781	4693
684.89136	4700
684.7449	4706
684.59844	4672
684.45197	4645
684.3055	4689
684.15902	4689
684.01254	4718
683.86606	4680
683.71957	4666
683.57307	4751
683.42658	4714
683.28007	4655
683.13357	4709
682.98705	4733
682.84054	4794
682.69402	4637
682.54749	4748
682.40096	4728
682.25443	4717
682.10789	4627
681.96134	4714
681.8148	4789
681.66824	4782
681.52169	4708
681.37513	4727
681.22856	4787
681.08199	4770
680.93541	4688
680.78883	4715
680.64225	4824
680.49566	4766
680.34907	4699
680.20247	4712
680.05587	4823
679.90926	4735
679.76265	4739
679.61603	4813
679.46941	4790
679.32279	4764
679.17616	4717
679.02952	4791
678.88289	4696
678.73624	4733
678.58959	4715
678.44294	4747
678.29629	4751
678.14962	4788
678.00296	4652
677.85629	4697
677.70961	4726
677.56293	4737
677.41625	4714
677.26956	4671
677.12287	4715
676.97617	4724
676.82947	4705
676.68276	4692
676.53605	4808
676.38934	4744
676.24262	4691
676.09589	4691
675.94916	4787
675.80243	4715
675.65569	4745
675.50895	4684
675.3622	4747
675.21545	4737
675.0687	4657
674.92193	4748
674.77517	4758
674.6284	4690
674.48163	4696
674.33485	4716
674.18806	4757
674.04128	4733
673.89448	4602
673.74769	4703
673.60088	4792
673.45408	4809
673.30727	4751
673.16045	4729
673.01363	4857
672.86681	4795
672.71998	4758
672.57315	4677
672.42631	4843
672.27947	4754
672.13262	4676
671.98577	4694
671.83891	4771
671.69205	4806
671.54519	4773
671.39832	4752
671.25145	4817
671.10457	4789
670.95768	4787
670.8108	4826
670.66391	4911
670.51701	4848
670.37011	4789
670.2232	4853
670.07629	4883
669.92938	4765
669.78246	4768
669.63554	4829
669.48861	4762
669.34167	4800
669.19474	4729
669.0478	4769
668.90085	4816
668.7539	4796
668.60694	4696
668.45998	4773
668.31302	4806
668.16605	4757
668.01908	4779
667.8721	4738
667.72512	4871
667.57813	4815
667.43114	4811
667.28414	4765
667.13714	4922
666.99014	4850
666.84313	4784
666.69611	4889
666.54909	4854
666.40207	4816
666.25504	4795
666.10801	4846
665.96097	4910
665.81393	4861
665.66689	4768
665.51984	4739
665.37278	4903
665.22572	4810
665.07866	4806
664.93159	4771
664.78452	4882
664.63744	4908
664.49036	4768
664.34327	4836
664.19618	4889
664.04909	4850
663.90199	4817
663.75488	4889
663.60777	4881
663.46066	4940
663.31354	4936
663.16642	4984
663.01929	5019
662.87216	5070
662.72502	4996
662.57788	5024
662.43074	5098
662.28359	5118
662.13643	5168
661.98927	5207
661.84211	5265
661.69494	5378
661.54777	5426
661.40059	5544
661.25341	5653
661.10622	5646
660.95903	5711
660.81184	5736
660.66464	5767
660.51744	5608
660.37023	5412
660.22301	5365
660.0758	5175
659.92857	5143
659.78135	4911
659.63412	4933
659.48688	4987
659.33964	4869
659.19239	4858
659.04514	4767
658.89789	4922
658.75063	4904
658.60337	4794
658.4561	4841
658.30883	4877
658.16155	4823
658.01427	4754
657.86699	4756
657.7197	4941
657.5724	4878
657.4251	4691
657.2778	4809
657.13049	4793
656.98318	4808
656.83586	4722
656.68854	4733
656.54121	4902
656.39388	4828
656.24655	4752
656.09921	4805
655.95186	4809
655.80451	4808
655.65716	4746
655.5098	4758
655.36244	4837
655.21507	4794
655.0677	4768
654.92032	4822
654.77294	4781
654.62556	4846
654.47817	4659
654.33078	4711
654.18338	4815
654.03597	4686
653.88857	4698
653.74115	4736
653.59374	4800
653.44632	4780
653.29889	4800
653.15146	4728
653.00402	4893
652.85658	4835
652.70914	4864
652.56169	4807
652.41424	4848
652.26678	4810
652.11932	4865
651.97185	4860
651.82438	4898
651.67691	4829
651.52943	4771
651.38194	4812
651.23445	4813
651.08696	4814
650.93946	4817
650.79196	4828
650.64445	4881
650.49694	4904
650.34942	4848
650.2019	4887
650.05438	4896
649.90685	4836
649.75931	4928
649.61177	4789
649.46423	4908
649.31668	4893
649.16913	4862
649.02157	4878
648.87401	4913
648.72644	4954
648.57887	4800
648.4313	4765
648.28372	4800
648.13613	4861
647.98855	4771
647.84095	4804
647.69335	4810
647.54575	4827
647.39814	4777
647.25053	4713
647.10292	4851
646.9553	4848
646.80767	4709
646.66004	4751
646.51241	4821
646.36477	4785
646.21713	4697
646.06948	4749
645.92183	4835
645.77417	4826
645.62651	4825
645.47884	4810
645.33117	4940
645.1835	4929
645.03582	4793
644.88814	4930
644.74045	4991
644.59276	4987
644.44506	5029
644.29736	5085
644.14965	5177
644.00194	5315
643.85422	5325
643.7065	5374
643.55878	5492
643.41105	5506
643.26332	5469
643.11558	5472
642.96784	5479
642.82009	5392
642.67234	5335
642.52458	5266
642.37682	5192
642.22905	5112
642.08128	4970
641.93351	4979
641.78573	5064
641.63795	4991
641.49016	4881
641.34237	4929
641.19457	4866
641.04677	4994
640.89896	4879
640.75115	4906
640.60334	4972
640.45552	4976
640.3077	5027
640.15987	5065
640.01203	5076
639.8642	5147
639.71635	5066
639.56851	5059
639.42066	5162
639.2728	5128
639.12494	5075
638.97708	5042
638.82921	5169
638.68133	5111
638.53345	5083
638.38557	5107
638.23768	5127
638.08979	5043
637.9419	5039
637.79399	4964
637.64609	5083
637.49818	4987
637.35026	4933
637.20235	4951
637.05442	4905
636.90649	4905
636.75856	4783
636.61062	4956
636.46268	4860
636.31474	4792
636.16678	4774
636.01883	4745
635.87087	4763
635.72291	4722
635.57494	4627
635.42696	4686
635.27899	4684
635.131	4644
634.98302	4582
634.83502	4657
634.68703	4617
634.53903	4682
634.39102	4663
634.24301	4677
634.095	4668
633.94698	4684
633.79896	4585
633.65093	4724
633.5029	4739
633.35486	4791
633.20682	4854
633.05877	5076
632.91072	5155
632.76267	5209
632.61461	5346
632.46655	5420
632.31848	5532
632.1704	5441
632.02233	5429
631.87425	5305
631.72616	5317
631.57807	5251
631.42997	5256
631.28187	5164
631.13377	5108
630.98566	5002
630.83755	4897
630.68943	4824
630.5413	4781
630.39318	4718
630.24505	4669
630.09691	4639
629.94877	4663
629.80062	4679
629.65247	4573
629.50432	4652
629.35616	4664
629.208	4672
629.05983	4606
628.91166	4675
628.76348	4700
628.6153	4699
628.46711	4594
628.31892	4597
628.17073	4741
628.02253	4639
627.87432	4627
627.72611	4568
627.5779	4601
627.42968	4621
627.28146	4596
627.13323	4669
626.985	4674
626.83677	4605
626.68853	4579
626.54028	4623
626.39203	4663
626.24378	4649
626.09552	4640
625.94726	4583
625.79899	4597
625.65072	4656
625.50244	4662
625.35416	4636
625.20587	4638
625.05758	4645
624.90929	4595
624.76099	4650
624.61269	4745
624.46438	4699
624.31607	4606
624.16775	4636
624.01943	4599
623.8711	4630
623.72277	4566
623.57443	4637
623.42609	4606
623.27775	4656
623.1294	4625
622.98105	4672
622.83269	4726
622.68433	4737
622.53596	4637
622.38759	4769
622.23921	4724
622.09083	4716
621.94245	4669
621.79406	4671
621.64566	4765
621.49726	4752
621.34886	4730
621.20045	4677
621.05204	4765
620.90362	4639
620.7552	4698
620.60678	4630
620.45835	4653
620.30991	4743
620.16147	4511
620.01303	4614
619.86458	4700
619.71613	4677
619.56767	4629
619.41921	4597
619.27074	4632
619.12227	4618
618.97379	4674
618.82531	4646
618.67683	4599
618.52834	4618
618.37985	4575
618.23135	4643
618.08285	4850
617.93434	4607
617.78583	4614
617.63731	4632
617.48879	4606
617.34026	4646
617.19173	4731
617.0432	4653
616.89466	4589
616.74612	4598
616.59757	4623
616.44902	4667
616.30046	4581
616.1519	4676
616.00333	4603
615.85476	4607
615.70619	4625
615.55761	4647
615.40902	4538
615.26043	4650
615.11184	4644
614.96324	4643
614.81464	4557
614.66603	4579
614.51742	4633
614.36881	4707
614.22019	4573
614.07156	4579
613.92293	4603
613.7743	4561
613.62566	4563
613.47702	4600
613.32837	4611
613.17972	4647
613.03106	4609
612.8824	4580
612.73373	4633
612.58506	4608
612.43639	4586
612.28771	4539
612.13903	4656
611.99034	4614
611.84164	4560
611.69295	4595
611.54425	4612
611.39554	4661
611.24683	4516
611.09811	4612
610.94939	4631
610.80067	4638
610.65194	4643
610.50321	4547
610.35447	4642
610.20573	4621
610.05698	4590
609.90823	4619
609.75947	4626
609.61071	4655
609.46194	4546
609.31317	4602
609.1644	4628
609.01562	4628
608.86684	4646
608.71805	4591
608.56926	4619
608.42046	4680
608.27166	4548
608.12285	4610
607.97404	4586
607.82523	4602
607.67641	4589
607.52759	4550
607.37876	4591
607.22992	4623
607.08109	4653
606.93224	4538
606.7834	4581
606.63455	4616
606.48569	4602
606.33683	4583
606.18797	4588
606.0391	4597
605.89022	4598
605.74134	4613
605.59246	4586
605.44357	4614
605.29468	4555
605.14579	4540
604.99688	4576
604.84798	4579
604.69907	4656
604.55015	4552
604.40124	4590
604.25231	4575
604.10338	4574
603.95445	4568
603.80551	4573
603.65657	4590
603.50763	4714
603.35868	4594
603.20972	4672
603.06076	4665
602.9118	4552
602.76283	4579
602.61385	4630
602.46488	4651
602.31589	4588
602.16691	4591
602.01792	4610
601.86892	4582
601.71992	4580
601.57091	4594
601.4219	4607
601.27289	4562
601.12387	4624
600.97485	4534
600.82582	4618
600.67679	4618
600.52775	4594
600.37871	4588
600.22967	4664
600.08062	4601
599.93156	4572
599.7825	4581
599.63344	4575
599.48437	4562
599.3353	4606
599.18622	4600
599.03714	4567
598.88805	4550
598.73896	4528
598.58986	4569
598.44076	4626
598.29166	4621
598.14255	4601
597.99344	4561
597.84432	4630
597.6952	4589
597.54607	4566
597.39694	4568
597.2478	4635
597.09866	4630
596.94951	4614
596.80036	4502
596.65121	4616
596.50205	4602
596.35289	4580
596.20372	4516
596.05455	4549
595.90537	4643
595.75619	4621
595.607	4542
595.45781	4589
595.30862	4572
595.15942	4496
595.01021	4560
594.86101	4622
594.71179	4621
594.56257	4535
594.41335	4599
594.26413	4583
594.11489	4591
593.96566	4556
593.81642	4578
593.66717	4607
593.51792	4607
593.36867	4598
593.21941	4591
593.07015	4545
592.92088	4614
592.77161	4610
592.62233	4558
592.47305	4624
592.32377	4580
592.17448	4552
592.02518	4592
591.87588	4631
591.72658	4653
591.57727	4583
591.42796	4572
591.27864	4589
591.12932	4567
590.97999	4565
590.83066	4548
590.68133	4652
590.53199	4655
590.38264	4555
590.23329	4537
590.08394	4665
589.93458	4553
589.78522	4622
589.63585	4549
589.48648	4520
589.33711	4628
589.18772	4540
589.03834	4652
588.88895	4650
588.73956	4634
588.59016	4553
588.44075	4587
588.29135	4611
588.14193	4600
587.99252	4581
587.8431	4609
587.69367	4610
587.54424	4615
587.39481	4617
587.24537	4520
587.09592	4611
586.94647	4675
586.79702	4564
586.64756	4547
586.4981	4651
586.34863	4561
586.19916	4537
586.04969	4579
585.90021	4612
585.75072	4650
585.60123	4584
585.45174	4578
585.30224	4596
585.15274	4603
585.00323	4560
584.85372	4582
584.7042	4619
584.55468	4636
584.40516	4566
584.25563	4570
584.10609	4564
583.95655	4611
583.80701	4584
583.65746	4573
583.50791	4669
583.35835	4543
583.20879	4581
583.05923	4562
582.90966	4594
582.76008	4588
582.6105	4598
582.46092	4597
582.31133	4587
582.16173	4655
582.01214	4593
581.86253	4523
581.71293	4616
581.56332	4549
581.4137	4589
581.26408	4616
581.11445	4694
580.96483	4525
580.81519	4609
580.66555	4581
580.51591	4606
580.36626	4605
580.21661	4547
580.06695	4586
579.91729	4598
579.76763	4570
579.61796	4604
579.46828	4589
579.3186	4599
579.16892	4629
579.01923	4635
578.86954	4588
578.71984	4593
578.57014	4681
578.42043	4574
578.27072	4574
578.12101	4624
577.97129	4594
577.82156	4578
577.67183	4485
577.5221	4617
577.37236	4622
577.22262	4599
577.07287	4533
576.92312	4601
576.77336	4582
576.6236	4578
576.47384	4577
576.32407	4612
576.17429	4597
576.02452	4588
575.87473	4548
575.72494	4651
575.57515	4602
575.42536	4612
575.27555	4532
575.12575	4623
574.97594	4559
574.82612	4575
574.6763	4521
574.52648	4592
574.37665	4584
574.22682	4565
574.07698	4566
573.92714	4589
573.77729	4596
573.62744	4583
573.47758	4608
573.32772	4639
573.17786	4577
573.02799	4623
572.87812	4503
572.72824	4572
572.57836	4611
572.42847	4556
572.27858	4518
572.12868	4613
571.97878	4592
571.82887	4614
571.67896	4561
571.52905	4573
571.37913	4645
571.22921	4549
571.07928	4555
570.92935	4569
570.77941	4551
570.62947	4640
570.47952	4608
570.32957	4581
570.17962	4606
570.02966	4584
569.87969	4559
569.72972	4571
569.57975	4655
569.42977	4596
569.27979	4618
569.1298	4550
568.97981	4529
568.82981	4553
568.67981	4558
568.52981	4677
568.3798	4598
568.22979	4589
568.07977	4583
567.92974	4543
567.77972	4556
567.62968	4620
567.47965	4572
567.32961	4617
567.17956	4576
567.02951	4586
566.87946	4672
566.7294	4632
566.57933	4644
566.42926	4548
566.27919	4491
566.12911	4649
565.97903	4605
565.82895	4590
565.67885	4621
565.52876	4664
565.37866	4607
565.22855	4556
565.07845	4659
564.92833	4609
564.77821	4677
564.62809	4523
564.47796	4597
564.32783	4635
564.1777	4623
564.02756	4560
563.87741	4649
563.72726	4594
563.57711	4562
563.42695	4726
563.27678	4622
563.12662	4615
562.97644	4681
