804.46256	4705
804.31984	4661
804.17712	4705
804.03439	4782
803.89167	4735
803.74893	4675
803.60619	4717
803.46345	4660
803.3207	4689
803.17795	4637
803.0352	4700
802.89244	4783
802.74967	4671
802.6069	4579
802.46413	4709
802.32135	4662
802.17856	4689
802.03578	4682
801.89298	4737
801.75019	4776
801.60738	4637
801.46458	4638
801.32177	4736
801.17895	4726
801.03613	4672
800.89331	4639
800.75048	4789
800.60765	4799
800.46481	4685
800.32197	4675
800.17912	4715
800.03627	4690
799.89341	4729
799.75055	4605
799.60769	4662
799.46482	4669
799.32195	4686
799.17907	4675
799.03618	4644
798.8933	4671
798.7504	4651
798.60751	4647
798.46461	4685
798.3217	4672
798.17879	4664
798.03588	4609
797.89296	4710
797.75003	4644
797.60711	4656
797.46417	4642
797.32124	4727
797.17829	4758
797.03535	4627
796.8924	4606
796.74944	4727
796.60648	4744
796.46352	4572
796.32055	4691
796.17757	4690
796.0346	4696
795.89161	4642
795.74863	4592
795.60564	4639
795.46264	4656
795.31964	4667
795.17663	4674
795.03362	4725
794.89061	4762
794.74759	4621
794.60457	4681
794.46154	4698
794.31851	4714
794.17547	4721
794.03243	4700
793.88938	4727
793.74633	4666
793.60328	4669
793.46022	4623
793.31716	4725
793.17409	4719
793.03101	4659
792.88794	4633
792.74485	4654
792.60177	4680
792.45868	4632
792.31558	4621
792.17248	4748
792.02938	4735
791.88627	4641
791.74315	4656
791.60003	4693
791.45691	4711
791.31378	4535
791.17065	4632
791.02752	4609
790.88438	4681
790.74123	4632
790.59808	4657
790.45493	4713
790.31177	4745
790.1686	4587
790.02544	4710
789.88226	4664
789.73909	4719
789.5959	4734
789.45272	4669
789.30953	4751
789.16633	4695
789.02313	4651
788.87993	4640
788.73672	4731
788.59351	4727
788.45029	4604
788.30707	4739
788.16384	4627
788.02061	4759
787.87737	4623
787.73413	4646
787.59089	4628
787.44764	4706
787.30438	4631
787.16112	4676
787.01786	4613
786.87459	4739
786.73132	4701
786.58805	4663
786.44476	4603
786.30148	4671
786.15819	4653
786.01489	4601
785.87159	4694
785.72829	4737
785.58498	4675
785.44167	4674
785.29835	4671
785.15503	4703
785.0117	4663
784.86837	4667
784.72504	4684
784.5817	4741
784.43835	4624
784.295	4682
784.15165	4709
784.00829	4748
783.86493	4655
783.72156	4652
783.57819	4691
783.43482	4726
783.29143	4724
783.14805	4754
783.00466	4770
782.86127	4781
782.71787	4628
782.57446	4623
782.43106	4694
782.28764	4711
782.14423	4649
782.0008	4688
781.85738	4765
781.71395	4717
781.57051	4722
781.42707	4710
781.28363	4709
781.14018	4735
780.99673	4714
780.85327	4744
780.70981	4763
780.56634	4793
780.42287	4716
780.2794	4717
780.13591	4745
779.99243	4700
779.84894	4662
779.70545	4643
779.56195	4769
779.41845	4726
779.27494	4627
779.13143	4686
778.98791	4686
778.84439	4685
778.70086	4705
778.55733	4737
778.4138	4704
778.27026	4677
778.12672	4693
777.98317	4649
777.83962	4689
777.69606	4710
777.5525	4645
777.40893	4674
777.26536	4692
777.12178	4731
776.97821	4637
776.83462	4669
776.69103	4652
776.54744	4669
776.40384	4587
776.26024	4682
776.11663	4711
775.97302	4703
775.8294	4675
775.68578	4658
775.54216	4668
775.39853	4703
775.25489	4648
775.11126	4627
774.96761	4745
774.82397	4746
774.68031	4641
774.53666	4647
774.393	4744
774.24933	4739
774.10566	4694
773.96198	4570
773.81831	4727
773.67462	4748
773.53093	4651
773.38724	4659
773.24354	4727
773.09984	4727
772.95613	4667
772.81242	4625
772.66871	4747
772.52499	4678
772.38126	4731
772.23753	4627
772.0938	4649
771.95006	4679
771.80632	4652
771.66257	4674
771.51882	4717
771.37506	4783
771.2313	4661
771.08754	4632
770.94377	4728
770.79999	4684
770.65622	4605
770.51243	4640
770.36864	4657
770.22485	4753
770.08105	4663
769.93725	4672
769.79345	4687
769.64964	4663
769.50582	4615
769.362	4680
769.21818	4717
769.07435	4786
768.93052	4641
768.78668	4650
768.64284	4704
768.49899	4687
768.35514	4740
768.21128	4661
768.06742	4689
767.92356	4650
767.77969	4674
767.63581	4693
767.49194	4608
767.34805	4695
767.20417	4639
767.06027	4703
766.91638	4700
766.77248	4696
766.62857	4662
766.48466	4656
766.34075	4655
766.19683	4741
766.0529	4631
765.90897	4719
765.76504	4690
765.6211	4678
765.47716	4656
765.33322	4693
765.18927	4738
765.04531	4685
764.90135	4664
764.75739	4672
764.61342	4740
764.46944	4692
764.32547	4681
764.18148	4701
764.0375	4720
763.8935	4719
763.74951	4726
763.60551	4687
763.4615	4706
763.31749	4725
763.17348	4668
763.02946	4690
762.88544	4781
762.74141	4719
762.59738	4633
762.45334	4717
762.3093	4644
762.16525	4636
762.0212	4685
761.87715	4649
761.73309	4759
761.58902	4766
761.44496	4733
761.30088	4613
761.15681	4725
761.01272	4757
760.86864	4739
760.72455	4743
760.58045	4751
760.43635	4738
760.29225	4714
760.14814	4666
760.00402	4738
759.8599	4749
759.71578	4640
759.57165	4655
759.42752	4749
759.28339	4789
759.13925	4679
758.9951	4674
758.85095	4706
758.7068	4761
758.56264	4671
758.41847	4662
758.27431	4683
758.13013	4760
757.98596	4732
757.84177	4664
757.69759	4713
757.5534	4729
757.4092	4709
757.265	4774
757.1208	4725
756.97659	4735
756.83238	4692
756.68816	4699
756.54394	4669
756.39971	4703
756.25548	4735
756.11124	4707
755.967	4708
755.82276	4750
755.67851	4688
755.53425	4651
755.39	4731
755.24573	4713
755.10146	4677
754.95719	4639
754.81292	4773
754.66864	4728
754.52435	4736
754.38006	4648
754.23576	4746
754.09147	4691
753.94716	4735
753.80285	4775
753.65854	4728
753.51422	4752
753.3699	4744
753.22557	4690
753.08124	4713
752.93691	4707
752.79257	4642
752.64822	4701
752.50388	4776
752.35952	4783
752.21516	4710
752.0708	4737
751.92643	4757
751.78206	4696
751.63769	4698
751.49331	4645
751.34892	4697
751.20453	4725
751.06014	4633
750.91574	4669
750.77133	4697
750.62693	4670
750.48251	4640
750.3381	4676
750.19368	4703
750.04925	4743
749.90482	4739
749.76038	4708
749.61595	4822
749.4715	4811
749.32705	4688
749.1826	4656
749.03814	4681
748.89368	4711
748.74921	4641
748.60474	4670
748.46027	4671
748.31579	4764
748.1713	4722
748.02681	4744
747.88232	4742
747.73782	4694
747.59332	4729
747.44881	4735
747.3043	4704
747.15978	4782
747.01526	4663
746.87074	4669
746.72621	4725
746.58167	4726
746.43713	4738
746.29259	4660
746.14804	4735
746.00349	4663
745.85893	4744
745.71437	4666
745.5698	4715
745.42523	4753
745.28066	4677
745.13608	4737
744.99149	4701
744.8469	4721
744.70231	4694
744.55771	4687
744.41311	4700
744.2685	4730
744.12389	4704
743.97928	4705
743.83466	4716
743.69003	4809
743.5454	4733
743.40077	4742
743.25613	4735
743.11149	4833
742.96684	4777
742.82219	4834
742.67753	4880
742.53287	4775
742.3882	4786
742.24353	4727
742.09886	4813
741.95418	4795
741.80949	4747
741.66481	4697
741.52011	4707
741.37541	4719
741.23071	4676
741.08601	4622
740.9413	4716
740.79658	4826
740.65186	4629
740.50714	4663
740.36241	4698
740.21767	4760
740.07293	4743
739.92819	4759
739.78344	4699
739.63869	4784
739.49394	4713
739.34918	4668
739.20441	4771
739.05964	4761
738.91487	4714
738.77009	4644
738.6253	4689
738.48052	4735
738.33572	4677
738.19093	4727
738.04613	4762
737.90132	4716
737.75651	4696
737.61169	4747
737.46687	4729
737.32205	4728
737.17722	4765
737.03239	4687
736.88755	4728
736.74271	4743
736.59786	4733
736.45301	4684
736.30816	4731
736.1633	4784
736.01843	4679
735.87356	4879
735.72869	4717
735.58381	4812
735.43893	4747
735.29404	4659
735.14915	4670
735.00425	4636
734.85935	4684
734.71444	4674
734.56953	4785
734.42462	4722
734.2797	4692
734.13478	4667
733.98985	4723
733.84491	4730
733.69998	4720
733.55504	4705
733.41009	4767
733.26514	4728
733.12018	4703
732.97522	4687
732.83026	4720
732.68529	4714
732.54032	4739
732.39534	4699
732.25036	4734
732.10537	4735
731.96038	4728
731.81538	4704
731.67038	4744
731.52538	4760
731.38037	4742
731.23535	4655
731.09033	4690
730.94531	4750
730.80028	4683
730.65525	4655
730.51021	4782
730.36517	4757
730.22013	4711
730.07508	4762
729.93002	4740
729.78496	4803
729.6399	4715
729.49483	4774
729.34976	4799
729.20468	4767
729.0596	4729
728.91451	4667
728.76942	4680
728.62432	4830
728.47922	4724
728.33412	4872
728.18901	4821
728.0439	4782
727.89878	4780
727.75366	4746
727.60853	4778
727.4634	4732
727.31826	4773
727.17312	4719
727.02797	4751
726.88282	4781
726.73767	4726
726.59251	4684
726.44735	4738
726.30218	4852
726.15701	4815
726.01183	4725
725.86665	4811
725.72146	4831
725.57627	4723
725.43108	4736
725.28588	4798
725.14067	4737
724.99546	4731
724.85025	4701
724.70503	4800
724.55981	4767
724.41458	4749
724.26935	4820
724.12412	4804
723.97888	5017
723.83363	5101
723.68838	5068
723.54313	5145
723.39787	5180
723.25261	5213
723.10734	5137
722.96207	5198
722.81679	5161
722.67151	5009
722.52622	4930
722.38093	4923
722.23564	4865
722.09034	4821
721.94504	4756
721.79973	4799
721.65442	4811
721.5091	4732
721.36378	4723
721.21845	4770
721.07312	4809
720.92778	4781
720.78244	4857
720.6371	4798
720.49175	4769
720.3464	4790
720.20104	4702
720.05568	4755
719.91031	4769
719.76494	4702
719.61956	4783
719.47418	4738
719.3288	4741
719.18341	4787
719.03801	4742
718.89261	4780
718.74721	4906
718.6018	4737
718.45639	4781
718.31097	4783
718.16555	4841
718.02013	4716
717.8747	4738
717.72926	4763
717.58382	4812
717.43838	4744
717.29293	4751
717.14748	4919
717.00202	4826
716.85656	4836
716.71109	4782
716.56562	4803
716.42014	4858
716.27466	4783
716.12918	4883
715.98369	4913
715.83819	4811
715.6927	4735
715.54719	4778
715.40169	4786
715.25617	4837
715.11066	4694
714.96514	4831
714.81961	4823
714.67408	4833
714.52855	4761
714.38301	4786
714.23746	4783
714.09192	4817
713.94636	4830
713.80081	4752
713.65524	4831
713.50968	4829
713.36411	4715
713.21853	4821
713.07295	4807
712.92737	4838
712.78178	4778
712.63619	4698
712.49059	4722
712.34499	4870
712.19938	4762
712.05377	4777
711.90815	4785
711.76253	4884
711.61691	4809
711.47128	4848
711.32564	4780
711.18	4819
711.03436	4848
710.88871	4808
710.74306	4830
710.59741	4807
710.45174	4747
710.30608	4815
710.16041	4800
710.01473	4861
709.86905	4820
709.72337	4801
709.57768	4848
709.43199	4819
709.28629	4813
709.14059	4797
708.99488	4839
708.84917	4821
708.70346	4810
708.55774	4861
708.41201	4841
708.26628	4853
708.12055	4794
707.97481	4842
707.82907	4834
707.68332	4797
707.53757	4783
707.39181	4854
707.24605	4782
707.10029	4885
706.95452	4790
706.80874	4796
706.66297	4756
706.51718	4840
706.37139	4819
706.2256	4776
706.0798	4813
705.934	4895
705.7882	4732
705.64239	4790
705.49657	4801
705.35075	4785
705.20493	4915
705.0591	4837
704.91327	4746
704.76743	4865
704.62159	4824
704.47574	4746
704.32989	4876
704.18403	4803
704.03817	4834
703.89231	4828
703.74644	4833
703.60056	4871
703.45469	4755
703.3088	4789
703.16292	4849
703.01702	4884
702.87113	4916
702.72523	5155
702.57932	5284
702.43341	5340
702.2875	5313
702.14158	5385
701.99565	5487
701.84973	5611
701.70379	5503
701.55786	5258
701.41191	5258
701.26597	5254
701.12002	5144
700.97406	5012
700.8281	5003
700.68214	4979
700.53617	4814
700.39019	4858
700.24422	4887
700.09823	4908
699.95225	4841
699.80626	4888
699.66026	4836
699.51426	4922
699.36825	4794
699.22224	4844
699.07623	4918
698.93021	4974
698.78419	4850
698.63816	4892
698.49213	4876
698.34609	4880
698.20005	4836
698.05401	4803
697.90795	4938
697.7619	4887
697.61584	4877
697.46978	4895
697.32371	4888
697.17764	4883
697.03156	4811
696.88548	4817
696.73939	4839
696.5933	4908
696.4472	4873
696.3011	4862
696.155	4876
696.00889	4860
695.86278	4827
695.71666	4862
695.57053	4949
695.42441	4876
695.27828	4867
695.13214	4865
694.986	4910
694.83985	4922
694.6937	4859
694.54755	4798
694.40139	4949
694.25523	4900
694.10906	4889
693.96289	4859
693.81671	4886
693.67053	4976
693.52434	4846
693.37815	4827
693.23196	4901
693.08576	4910
692.93955	4854
692.79334	4907
692.64713	4903
692.50091	4953
692.35469	4970
692.20846	5013
692.06223	5051
691.916	5061
691.76976	5053
691.62351	5027
691.47726	5026
691.33101	5048
691.18475	4957
691.03849	4995
690.89222	5007
690.74595	4915
690.59967	4977
690.45339	4870
690.3071	4897
690.16081	4901
690.01452	4857
689.86822	4944
689.72192	4863
689.57561	4940
689.42929	4801
689.28298	4874
689.13666	4902
688.99033	4872
688.844	4900
688.69766	4941
688.55132	4883
688.40498	4897
688.25863	4906
688.11228	4811
687.96592	4906
687.81956	4962
687.67319	4895
687.52682	4862
687.38044	4904
687.23406	5013
687.08768	4955
686.94129	4889
686.79489	4912
686.64849	4977
686.50209	4940
686.35568	4876
686.20927	4879
686.06285	4936
685.91643	4858
685.77001	4882
685.62357	4943
685.47714	4945
685.3307	4901
685.18426	4867
685.03781	4901
684.89136	4967
684.7449	4953
684.59844	4928
684.45197	5008
684.3055	5022
684.15902	4908
684.01254	4941
683.86606	4959
683.71957	4980
683.57307	4958
683.42658	4884
683.28007	4955
683.13357	4977
682.98705	4935
682.84054	4938
682.69402	4985
682.54749	4948
682.40096	4875
682.25443	5019
682.10789	4870
681.96134	5014
681.8148	4920
681.66824	4912
681.52169	4925
681.37513	4916
681.22856	4990
681.08199	4920
680.93541	4910
680.78883	4933
680.64225	4977
680.49566	4908
680.34907	4911
680.20247	4975
680.05587	4984
679.90926	4927
679.76265	4852
679.61603	5031
679.46941	4904
679.32279	4907
679.17616	4892
679.02952	5059
678.88289	4937
678.73624	4895
678.58959	4927
678.44294	4981
678.29629	4996
678.14962	4943
678.00296	4965
677.85629	4934
677.70961	4902
677.56293	4855
677.41625	5027
677.26956	4975
677.12287	4875
676.97617	4910
676.82947	5005
676.68276	4966
676.53605	4846
676.38934	4851
676.24262	4970
676.09589	5018
675.94916	4893
675.80243	4909
675.65569	4954
675.50895	4994
675.3622	4867
675.21545	4929
675.0687	4993
674.92193	4992
674.77517	5056
674.6284	4973
674.48163	4952
674.33485	5027
674.18806	4982
674.04128	4927
673.89448	5084
673.74769	4992
673.60088	5011
673.45408	4928
673.30727	4961
673.16045	4926
673.01363	4958
672.86681	4959
672.71998	4924
672.57315	5020
672.42631	4949
672.27947	4940
672.13262	4975
671.98577	4996
671.83891	4942
671.69205	4962
671.54519	4995
671.39832	5017
671.25145	5000
671.10457	4948
670.95768	5084
670.8108	5118
670.66391	5066
670.51701	4925
670.37011	5073
670.2232	5147
670.07629	5028
669.92938	4981
669.78246	5046
669.63554	5037
669.48861	4992
669.34167	4996
669.19474	4934
669.0478	5030
668.90085	4954
668.7539	4967
668.60694	5063
668.45998	5030
668.31302	4960
668.16605	5007
668.01908	5047
667.8721	5036
667.72512	5059
667.57813	5050
667.43114	5011
667.28414	5178
667.13714	4937
666.99014	5054
666.84313	5058
666.69611	5056
666.54909	5054
666.40207	5046
666.25504	5096
666.10801	5133
665.96097	5065
665.81393	5161
665.66689	5004
665.51984	5086
665.37278	4991
665.22572	5125
665.07866	5070
664.93159	5097
664.78452	5105
664.63744	5081
664.49036	5171
664.34327	5153
664.19618	5079
664.04909	5202
663.90199	5151
663.75488	5155
663.60777	5226
663.46066	5232
663.31354	5305
663.16642	5221
663.01929	5206
662.87216	5147
662.72502	5225
662.57788	5155
662.43074	5199
662.28359	5061
662.13643	5155
661.98927	5088
661.84211	5079
661.69494	5033
661.54777	5044
661.40059	5151
661.25341	5008
661.10622	5027
660.95903	5097
660.81184	5149
660.66464	5033
660.51744	5062
660.37023	5131
660.22301	5147
660.0758	5208
659.92857	5102
659.78135	5146
659.63412	5202
659.48688	5157
659.33964	5188
659.19239	5170
659.04514	5150
658.89789	5185
658.75063	5159
658.60337	5185
658.4561	5183
658.30883	5178
658.16155	5108
658.01427	5109
657.86699	5096
657.7197	5107
657.5724	5083
657.4251	5124
657.2778	5115
657.13049	5090
656.98318	4992
656.83586	5036
656.68854	5078
656.54121	5021
656.39388	4954
656.24655	5085
656.09921	5168
655.95186	5073
655.80451	4974
655.65716	5104
655.5098	5140
655.36244	5089
655.21507	5052
655.0677	5081
654.92032	5121
654.77294	5035
654.62556	5039
654.47817	5073
654.33078	5064
654.18338	5043
654.03597	4927
653.88857	5000
653.74115	5157
653.59374	5046
653.44632	5007
653.29889	5125
653.15146	5118
653.00402	5081
652.85658	5086
652.70914	5125
652.56169	5161
652.41424	5047
652.26678	5101
652.11932	5137
651.97185	5214
651.82438	5154
651.67691	5104
651.52943	5082
651.38194	5121
651.23445	5096
651.08696	5111
650.93946	5138
650.79196	5077
650.64445	5060
650.49694	5134
650.34942	5140
650.2019	5183
650.05438	5159
649.90685	5134
649.75931	5275
649.61177	5120
649.46423	5025
649.31668	5183
649.16913	5173
649.02157	5196
648.87401	5154
648.72644	5149
648.57887	5200
648.4313	5145
648.28372	5123
648.13613	5053
647.98855	5142
647.84095	5197
647.69335	5143
647.54575	5164
647.39814	5121
647.25053	5320
647.10292	5290
646.9553	5195
646.80767	5233
646.66004	5275
646.51241	5224
646.36477	5268
646.21713	5326
646.06948	5246
645.92183	5134
645.77417	5246
645.62651	5184
645.47884	5216
645.33117	5211
645.1835	5074
645.03582	5202
644.88814	5158
644.74045	5093
644.59276	5148
644.44506	5208
644.29736	5099
644.14965	5143
644.00194	5167
643.85422	5213
643.7065	5290
643.55878	5281
643.41105	5350
643.26332	5510
643.11558	5542
642.96784	5580
642.82009	5550
642.67234	5692
642.52458	5717
642.37682	5711
642.22905	5750
642.08128	5815
641.93351	5689
641.78573	5577
641.63795	5536
641.49016	5435
641.34237	5387
641.19457	5345
641.04677	5294
640.89896	5332
640.75115	5280
640.60334	5136
640.45552	5221
640.3077	5234
640.15987	5266
640.01203	5198
639.8642	5097
639.71635	5195
639.56851	5181
639.42066	5143
639.2728	5170
639.12494	5227
638.97708	5221
638.82921	5172
638.68133	5220
638.53345	5214
638.38557	5213
638.23768	5163
638.08979	5119
637.9419	5262
637.79399	5254
637.64609	5161
637.49818	5082
637.35026	5122
637.20235	4975
637.05442	4978
636.90649	4931
636.75856	4966
636.61062	4900
636.46268	4866
636.31474	4860
636.16678	4890
636.01883	4863
635.87087	4765
635.72291	4741
635.57494	4718
635.42696	4759
635.27899	4656
635.131	4669
634.98302	4715
634.83502	4760
634.68703	4703
634.53903	4700
634.39102	4710
634.24301	4755
634.095	4694
633.94698	4673
633.79896	4792
633.65093	4802
633.5029	4754
633.35486	4710
633.20682	4910
633.05877	5090
632.91072	4969
632.76267	5056
632.61461	5193
632.46655	5267
632.31848	5169
632.1704	5246
632.02233	5154
631.87425	5149
631.72616	5032
631.57807	5006
631.42997	5112
631.28187	4998
631.13377	5019
630.98566	4936
630.83755	4962
630.68943	4894
630.5413	4743
630.39318	4768
630.24505	4775
630.09691	4711
629.94877	4687
629.80062	4717
629.65247	4733
629.50432	4770
629.35616	4732
629.208	4639
629.05983	4676
628.91166	4738
628.76348	4653
628.6153	4709
628.46711	4700
628.31892	4724
628.17073	4714
628.02253	4687
627.87432	4675
627.72611	4761
627.5779	4706
627.42968	4669
627.28146	4704
627.13323	4739
626.985	4663
626.83677	4713
626.68853	4630
626.54028	4776
626.39203	4717
626.24378	4728
626.09552	4685
625.94726	4764
625.79899	4678
625.65072	4673
625.50244	4724
625.35416	4770
625.20587	4696
625.05758	4704
624.90929	4713
624.76099	4714
624.61269	4600
624.46438	4603
624.31607	4705
624.16775	4758
624.01943	4659
623.8711	4686
623.72277	4734
623.57443	4765
623.42609	4706
623.27775	4690
623.1294	4722
622.98105	4721
622.83269	4708
622.68433	4661
622.53596	4761
622.38759	4812
622.23921	4665
622.09083	4747
621.94245	4695
621.79406	4748
621.64566	4729
621.49726	4760
621.34886	4768
621.20045	4840
621.05204	4829
620.90362	4717
620.7552	4747
620.60678	4880
620.45835	4752
620.30991	4679
620.16147	4789
620.01303	4786
619.86458	4789
619.71613	4723
619.56767	4621
619.41921	4853
619.27074	4728
619.12227	4620
618.97379	4783
618.82531	4704
618.67683	4715
618.52834	4700
618.37985	4702
618.23135	4775
618.08285	4770
617.93434	4627
617.78583	4699
617.63731	4672
617.48879	4648
617.34026	4598
617.19173	4663
617.0432	4720
616.89466	4627
616.74612	4649
616.59757	4643
616.44902	4704
616.30046	4727
616.1519	4683
616.00333	4693
615.85476	4669
615.70619	4646
615.55761	4633
615.40902	4694
615.26043	4715
615.11184	4623
614.96324	4636
614.81464	4651
614.66603	4628
614.51742	4602
614.36881	4609
614.22019	4637
614.07156	4686
613.92293	4683
613.7743	4660
613.62566	4620
613.47702	4591
613.32837	4686
613.17972	4619
613.03106	4765
612.8824	4662
612.73373	4580
612.58506	4583
612.43639	4633
612.28771	4667
612.13903	4531
611.99034	4612
611.84164	4563
611.69295	4618
611.54425	4568
611.39554	4580
611.24683	4602
611.09811	4719
610.94939	4589
610.80067	4606
610.65194	4664
610.50321	4643
610.35447	4584
610.20573	4595
610.05698	4625
609.90823	4652
609.75947	4659
609.61071	4614
609.46194	4609
609.31317	4638
609.1644	4603
609.01562	4585
608.86684	4594
608.71805	4663
608.56926	4614
608.42046	4589
608.27166	4656
608.12285	4653
607.97404	4606
607.82523	4542
607.67641	4630
607.52759	4687
607.37876	4647
607.22992	4630
607.08109	4631
606.93224	4660
606.7834	4625
606.63455	4559
606.48569	4624
606.33683	4706
606.18797	4549
606.0391	4667
605.89022	4633
605.74134	4576
605.59246	4632
605.44357	4592
605.29468	4630
605.14579	4640
604.99688	4570
604.84798	4628
604.69907	4691
604.55015	4644
604.40124	4666
604.25231	4630
604.10338	4594
603.95445	4651
603.80551	4563
603.65657	4556
603.50763	4732
603.35868	4656
603.20972	4661
603.06076	4661
602.9118	4608
602.76283	4662
602.61385	4611
602.46488	4627
602.31589	4572
602.16691	4676
602.01792	4622
601.86892	4634
601.71992	4590
601.57091	4645
601.4219	4635
601.27289	4556
601.12387	4573
600.97485	4728
600.82582	4559
600.67679	4579
600.52775	4639
600.37871	4622
600.22967	4609
600.08062	4590
599.93156	4640
599.7825	4610
599.63344	4624
599.48437	4589
599.3353	4660
599.18622	4665
599.03714	4595
598.88805	4522
598.73896	4586
598.58986	4661
598.44076	4591
598.29166	4605
598.14255	4625
597.99344	4665
597.84432	4546
597.6952	4548
597.54607	4542
597.39694	4626
597.2478	4561
597.09866	4589
596.94951	4558
596.80036	4649
596.65121	4621
596.50205	4588
596.35289	4641
596.20372	4580
596.05455	4607
595.90537	4596
595.75619	4556
595.607	4656
595.45781	4630
595.30862	4552
595.15942	4568
595.01021	4605
594.86101	4579
594.71179	4609
594.56257	4663
594.41335	4660
594.26413	4589
594.11489	4536
593.96566	4664
593.81642	4611
593.66717	4568
593.51792	4574
593.36867	4590
593.21941	4665
593.07015	4656
592.92088	4594
592.77161	4658
592.62233	4591
592.47305	4598
592.32377	4557
592.17448	4593
592.02518	4615
591.87588	4625
591.72658	4589
591.57727	4643
591.42796	4643
591.27864	4650
591.12932	4618
590.97999	4653
590.83066	4615
590.68133	4599
590.53199	4615
590.38264	4635
590.23329	4612
590.08394	4660
589.93458	4582
589.78522	4627
589.63585	4681
589.48648	4585
589.33711	4654
589.18772	4618
589.03834	4653
588.88895	4577
588.73956	4522
588.59016	4622
588.44075	4626
588.29135	4606
588.14193	4553
587.99252	4693
587.8431	4688
587.69367	4561
587.54424	4660
587.39481	4568
587.24537	4597
587.09592	4638
586.94647	4636
586.79702	4622
586.64756	4617
586.4981	4623
586.34863	4616
586.19916	4591
586.04969	4644
585.90021	4616
585.75072	4572
585.60123	4574
585.45174	4656
585.30224	4585
585.15274	4677
585.00323	4594
584.85372	4724
584.7042	4578
584.55468	4629
584.40516	4584
584.25563	4653
584.10609	4619
583.95655	4582
583.80701	4578
583.65746	4595
583.50791	4625
583.35835	4537
583.20879	4577
583.05923	4543
582.90966	4578
582.76008	4601
582.6105	4619
582.46092	4643
582.31133	4610
582.16173	4583
582.01214	4583
581.86253	4663
581.71293	4553
581.56332	4530
581.4137	4589
581.26408	4686
581.11445	4667
580.96483	4585
580.81519	4564
580.66555	4679
580.51591	4561
580.36626	4591
580.21661	4598
580.06695	4656
579.91729	4540
579.76763	4577
579.61796	4549
579.46828	4583
579.3186	4596
579.16892	4584
579.01923	4583
578.86954	4613
578.71984	4628
578.57014	4666
578.42043	4578
578.27072	4655
578.12101	4587
577.97129	4547
577.82156	4624
577.67183	4621
577.5221	4597
577.37236	4724
577.22262	4577
577.07287	4573
576.92312	4570
576.77336	4606
576.6236	4615
576.47384	4586
576.32407	4551
576.17429	4533
576.02452	4640
575.87473	4629
575.72494	4569
575.57515	4584
575.42536	4551
575.27555	4636
575.12575	4547
574.97594	4568
574.82612	4624
574.6763	4603
574.52648	4558
574.37665	4608
574.22682	4591
574.07698	4603
573.92714	4522
573.77729	4636
573.62744	4610
573.47758	4627
573.32772	4590
573.17786	4542
573.02799	4611
572.87812	4658
572.72824	4588
572.57836	4556
572.42847	4591
572.27858	4622
572.12868	4550
571.97878	4600
571.82887	4556
571.67896	4624
571.52905	4587
571.37913	4595
571.22921	4601
571.07928	4563
570.92935	4616
570.77941	4604
570.62947	4660
570.47952	4565
570.32957	4660
570.17962	4563
570.02966	4626
569.87969	4605
569.72972	4568
569.57975	4713
569.42977	4548
569.27979	4588
569.1298	4594
568.97981	4529
568.82981	4594
568.67981	4627
568.52981	4580
568.3798	4600
568.22979	4649
568.07977	4676
567.92974	4556
567.77972	4551
567.62968	4667
567.47965	4626
567.32961	4592
567.17956	4564
567.02951	4619
566.87946	4629
566.7294	4576
566.57933	4611
566.42926	4623
566.27919	4615
566.12911	4566
565.97903	4617
565.82895	4662
565.67885	4704
565.52876	4663
565.37866	4604
565.22855	4622
565.07845	4686
564.92833	4585
564.77821	4480
564.62809	4628
564.47796	4599
564.32783	4649
564.1777	4541
564.02756	4661
563.87741	4649
563.72726	4498
563.57711	4554
563.42695	4728
563.27678	4617
563.12662	4644
562.97644	4676
