804.46256	4677
804.31984	4655
804.17712	4664
804.03439	4655
803.89167	4703
803.74893	4645
803.60619	4630
803.46345	4549
803.3207	4620
803.17795	4665
803.0352	4605
802.89244	4674
802.74967	4682
802.6069	4633
802.46413	4477
802.32135	4606
802.17856	4672
802.03578	4666
801.89298	4575
801.75019	4699
801.60738	4625
801.46458	4711
801.32177	4560
801.17895	4565
801.03613	4617
800.89331	4613
800.75048	4512
800.60765	4553
800.46481	4636
800.32197	4642
800.17912	4549
800.03627	4602
799.89341	4649
799.75055	4583
799.60769	4599
799.46482	4628
799.32195	4598
799.17907	4635
799.03618	4517
798.8933	4552
798.7504	4615
798.60751	4589
798.46461	4508
798.3217	4535
798.17879	4579
798.03588	4601
797.89296	4550
797.75003	4583
797.60711	4547
797.46417	4633
797.32124	4509
797.17829	4603
797.03535	4584
796.8924	4616
796.74944	4571
796.60648	4550
796.46352	4611
796.32055	4652
796.17757	4502
796.0346	4653
795.89161	4629
795.74863	4603
795.60564	4588
795.46264	4558
795.31964	4558
795.17663	4580
795.03362	4546
794.89061	4663
794.74759	4617
794.60457	4685
794.46154	4503
794.31851	4581
794.17547	4584
794.03243	4655
793.88938	4609
793.74633	4596
793.60328	4658
793.46022	4594
793.31716	4558
793.17409	4633
793.03101	4635
792.88794	4657
792.74485	4603
792.60177	4543
792.45868	4595
792.31558	4626
792.17248	4502
792.02938	4614
791.88627	4644
791.74315	4615
791.60003	4587
791.45691	4572
791.31378	4554
791.17065	4600
791.02752	4545
790.88438	4611
790.74123	4532
790.59808	4607
790.45493	4521
790.31177	4605
790.1686	4614
790.02544	4663
789.88226	4579
789.73909	4535
789.5959	4673
789.45272	4553
789.30953	4578
789.16633	4593
789.02313	4590
788.87993	4574
788.73672	4528
788.59351	4657
788.45029	4644
788.30707	4665
788.16384	4524
788.02061	4602
787.87737	4599
787.73413	4621
787.59089	4542
787.44764	4539
787.30438	4594
787.16112	4652
787.01786	4558
786.87459	4555
786.73132	4646
786.58805	4649
786.44476	4494
786.30148	4575
786.15819	4624
786.01489	4607
785.87159	4561
785.72829	4603
785.58498	4575
785.44167	4640
785.29835	4579
785.15503	4574
785.0117	4650
784.86837	4654
784.72504	4595
784.5817	4568
784.43835	4591
784.295	4691
784.15165	4670
784.00829	4650
783.86493	4624
783.72156	4619
783.57819	4568
783.43482	4617
783.29143	4612
783.14805	4697
783.00466	4567
782.86127	4613
782.71787	4593
782.57446	4632
782.43106	4558
782.28764	4619
782.14423	4677
782.0008	4628
781.85738	4503
781.71395	4583
781.57051	4664
781.42707	4609
781.28363	4581
781.14018	4514
780.99673	4626
780.85327	4675
780.70981	4624
780.56634	4661
780.42287	4647
780.2794	4676
780.13591	4648
779.99243	4601
779.84894	4703
779.70545	4667
779.56195	4622
779.41845	4661
779.27494	4608
779.13143	4672
778.98791	4542
778.84439	4642
778.70086	4667
778.55733	4626
778.4138	4548
778.27026	4594
778.12672	4591
777.98317	4626
777.83962	4539
777.69606	4609
777.5525	4598
777.40893	4645
777.26536	4618
777.12178	4677
776.97821	4595
776.83462	4597
776.69103	4531
776.54744	4602
776.40384	4589
776.26024	4610
776.11663	4592
775.97302	4590
775.8294	4591
775.68578	4644
775.54216	4549
775.39853	4575
775.25489	4572
775.11126	4580
774.96761	4560
774.82397	4586
774.68031	4585
774.53666	4651
774.393	4553
774.24933	4627
774.10566	4639
773.96198	4650
773.81831	4548
773.67462	4552
773.53093	4571
773.38724	4602
773.24354	4562
773.09984	4574
772.95613	4636
772.81242	4631
772.66871	4574
772.52499	4632
772.38126	4602
772.23753	4638
772.0938	4570
771.95006	4533
771.80632	4566
771.66257	4611
771.51882	4576
771.37506	4565
771.2313	4574
771.08754	4635
770.94377	4529
770.79999	4568
770.65622	4601
770.51243	4599
770.36864	4523
770.22485	4599
770.08105	4642
769.93725	4511
769.79345	4560
769.64964	4631
769.50582	4610
769.362	4562
769.21818	4544
769.07435	4640
768.93052	4698
768.78668	4591
768.64284	4502
768.49899	4617
768.35514	4657
768.21128	4629
768.06742	4600
767.92356	4606
767.77969	4574
767.63581	4650
767.49194	4608
767.34805	4576
767.20417	4598
767.06027	4605
766.91638	4583
766.77248	4546
766.62857	4619
766.48466	4681
766.34075	4578
766.19683	4581
766.0529	4550
765.90897	4634
765.76504	4535
765.6211	4617
765.47716	4623
765.33322	4612
765.18927	4560
765.04531	4581
764.90135	4604
764.75739	4668
764.61342	4578
764.46944	4584
764.32547	4578
764.18148	4586
764.0375	4537
763.8935	4622
763.74951	4583
763.60551	4571
763.4615	4634
763.31749	4526
763.17348	4640
763.02946	4630
762.88544	4628
762.74141	4504
762.59738	4633
762.45334	4638
762.3093	4571
762.16525	4641
762.0212	4670
761.87715	4653
761.73309	4605
761.58902	4643
761.44496	4615
761.30088	4703
761.15681	4642
761.01272	4597
760.86864	4615
760.72455	4655
760.58045	4592
760.43635	4573
760.29225	4623
760.14814	4634
760.00402	4643
759.8599	4530
759.71578	4644
759.57165	4663
759.42752	4536
759.28339	4586
759.13925	4639
758.9951	4637
758.85095	4625
758.7068	4575
758.56264	4611
758.41847	4644
758.27431	4625
758.13013	4604
757.98596	4619
757.84177	4591
757.69759	4567
757.5534	4546
757.4092	4662
757.265	4636
757.1208	4618
756.97659	4571
756.83238	4565
756.68816	4616
756.54394	4620
756.39971	4586
756.25548	4598
756.11124	4571
755.967	4553
755.82276	4570
755.67851	4596
755.53425	4680
755.39	4535
755.24573	4591
755.10146	4618
754.95719	4566
754.81292	4617
754.66864	4576
754.52435	4752
754.38006	4646
754.23576	4611
754.09147	4590
753.94716	4668
753.80285	4626
753.65854	4622
753.51422	4585
753.3699	4683
753.22557	4642
753.08124	4566
752.93691	4586
752.79257	4615
752.64822	4666
752.50388	4591
752.35952	4647
752.21516	4711
752.0708	4626
751.92643	4621
751.78206	4524
751.63769	4631
751.49331	4637
751.34892	4530
751.20453	4571
751.06014	4581
750.91574	4611
750.77133	4545
750.62693	4581
750.48251	4652
750.3381	4593
750.19368	4576
750.04925	4517
749.90482	4667
749.76038	4695
749.61595	4615
749.4715	4603
749.32705	4539
749.1826	4596
749.03814	4604
748.89368	4589
748.74921	4577
748.60474	4567
748.46027	4578
748.31579	4585
748.1713	4622
748.02681	4670
747.88232	4597
747.73782	4613
747.59332	4613
747.44881	4628
747.3043	4568
747.15978	4536
747.01526	4616
746.87074	4612
746.72621	4487
746.58167	4641
746.43713	4627
746.29259	4617
746.14804	4492
746.00349	4605
745.85893	4587
745.71437	4616
745.5698	4558
745.42523	4562
745.28066	4674
745.13608	4607
744.99149	4560
744.8469	4590
744.70231	4685
744.55771	4594
744.41311	4512
744.2685	4633
744.12389	4598
743.97928	4621
743.83466	4640
743.69003	4631
743.5454	4677
743.40077	4712
743.25613	4697
743.11149	4675
742.96684	4732
742.82219	4720
742.67753	4678
742.53287	4636
742.3882	4732
742.24353	4607
742.09886	4567
741.95418	4696
741.80949	4592
741.66481	4649
741.52011	4481
741.37541	4561
741.23071	4602
741.08601	4652
740.9413	4515
740.79658	4585
740.65186	4573
740.50714	4611
740.36241	4506
740.21767	4620
740.07293	4630
739.92819	4608
739.78344	4499
739.63869	4590
739.49394	4595
739.34918	4611
739.20441	4562
739.05964	4573
738.91487	4676
738.77009	4595
738.6253	4538
738.48052	4568
738.33572	4609
738.19093	4584
738.04613	4544
737.90132	4591
737.75651	4652
737.61169	4678
737.46687	4584
737.32205	4559
737.17722	4551
737.03239	4580
736.88755	4532
736.74271	4552
736.59786	4658
736.45301	4642
736.30816	4621
736.1633	4511
736.01843	4651
735.87356	4747
735.72869	4636
735.58381	4607
735.43893	4663
735.29404	4626
735.14915	4530
735.00425	4538
734.85935	4586
734.71444	4629
734.56953	4570
734.42462	4569
734.2797	4612
734.13478	4601
733.98985	4534
733.84491	4534
733.69998	4587
733.55504	4640
733.41009	4581
733.26514	4617
733.12018	4603
732.97522	4598
732.83026	4573
732.68529	4581
732.54032	4611
732.39534	4642
732.25036	4551
732.10537	4573
731.96038	4645
731.81538	4616
731.67038	4541
731.52538	4670
731.38037	4611
731.23535	4630
731.09033	4540
730.94531	4565
730.80028	4577
730.65525	4571
730.51021	4614
730.36517	4646
730.22013	4558
730.07508	4659
729.93002	4600
729.78496	4565
729.6399	4626
729.49483	4613
729.34976	4568
729.20468	4667
729.0596	4567
728.91451	4609
728.76942	4567
728.62432	4549
728.47922	4609
728.33412	4604
728.18901	4662
728.0439	4606
727.89878	4607
727.75366	4674
727.60853	4565
727.4634	4608
727.31826	4684
727.17312	4644
727.02797	4527
726.88282	4604
726.73767	4589
726.59251	4613
726.44735	4645
726.30218	4586
726.15701	4595
726.01183	4641
725.86665	4548
725.72146	4585
725.57627	4574
725.43108	4698
725.28588	4563
725.14067	4594
724.99546	4652
724.85025	4661
724.70503	4560
724.55981	4591
724.41458	4674
724.26935	4759
724.12412	4784
723.97888	4885
723.83363	4975
723.68838	5007
723.54313	4975
723.39787	5096
723.25261	5099
723.10734	5041
722.96207	4859
722.81679	4830
722.67151	4850
722.52622	4734
722.38093	4640
722.23564	4665
722.09034	4685
721.94504	4629
721.79973	4565
721.65442	4595
721.5091	4606
721.36378	4675
721.21845	4581
721.07312	4631
720.92778	4618
720.78244	4557
720.6371	4568
720.49175	4587
720.3464	4577
720.20104	4583
720.05568	4595
719.91031	4562
719.76494	4670
719.61956	4644
719.47418	4523
719.3288	4634
719.18341	4630
719.03801	4660
718.89261	4624
718.74721	4619
718.6018	4690
718.45639	4632
718.31097	4619
718.16555	4579
718.02013	4641
717.8747	4653
717.72926	4632
717.58382	4616
717.43838	4623
717.29293	4619
717.14748	4669
717.00202	4620
716.85656	4643
716.71109	4672
716.56562	4687
716.42014	4646
716.27466	4631
716.12918	4673
715.98369	4649
715.83819	4601
715.6927	4684
715.54719	4635
715.40169	4553
715.25617	4618
715.11066	4638
714.96514	4616
714.81961	4562
714.67408	4610
714.52855	4642
714.38301	4623
714.23746	4594
714.09192	4604
713.94636	4697
713.80081	4600
713.65524	4522
713.50968	4556
713.36411	4630
713.21853	4592
713.07295	4617
712.92737	4588
712.78178	4552
712.63619	4667
712.49059	4581
712.34499	4589
712.19938	4670
712.05377	4640
711.90815	4526
711.76253	4582
711.61691	4611
711.47128	4601
711.32564	4620
711.18	4606
711.03436	4627
710.88871	4685
710.74306	4591
710.59741	4568
710.45174	4684
710.30608	4619
710.16041	4569
710.01473	4579
709.86905	4616
709.72337	4633
709.57768	4624
709.43199	4575
709.28629	4612
709.14059	4582
708.99488	4542
708.84917	4642
708.70346	4685
708.55774	4695
708.41201	4553
708.26628	4534
708.12055	4642
707.97481	4653
707.82907	4607
707.68332	4598
707.53757	4628
707.39181	4628
707.24605	4599
707.10029	4672
706.95452	4635
706.80874	4645
706.66297	4608
706.51718	4621
706.37139	4641
706.2256	4637
706.0798	4599
705.934	4571
705.7882	4665
705.64239	4659
705.49657	4625
705.35075	4650
705.20493	4670
705.0591	4584
704.91327	4547
704.76743	4599
704.62159	4638
704.47574	4619
704.32989	4569
704.18403	4597
704.03817	4629
703.89231	4651
703.74644	4643
703.60056	4571
703.45469	4678
703.3088	4668
703.16292	4711
703.01702	4736
702.87113	4887
702.72523	4994
702.57932	5079
702.43341	5322
702.2875	5222
702.14158	5300
701.99565	5334
701.84973	5298
701.70379	5068
701.55786	5012
701.41191	4948
701.26597	4891
701.12002	4818
700.97406	4783
700.8281	4620
700.68214	4674
700.53617	4627
700.39019	4668
700.24422	4649
700.09823	4613
699.95225	4710
699.80626	4688
699.66026	4648
699.51426	4630
699.36825	4655
699.22224	4653
699.07623	4644
698.93021	4709
698.78419	4673
698.63816	4678
698.49213	4635
698.34609	4602
698.20005	4682
698.05401	4647
697.90795	4629
697.7619	4613
697.61584	4676
697.46978	4571
697.32371	4614
697.17764	4606
697.03156	4606
696.88548	4673
696.73939	4601
696.5933	4546
696.4472	4690
696.3011	4715
696.155	4611
696.00889	4613
695.86278	4639
695.71666	4618
695.57053	4665
695.42441	4646
695.27828	4712
695.13214	4735
694.986	4588
694.83985	4704
694.6937	4698
694.54755	4688
694.40139	4652
694.25523	4707
694.10906	4815
693.96289	4714
693.81671	4697
693.67053	4693
693.52434	4713
693.37815	4653
693.23196	4658
693.08576	4668
692.93955	4660
692.79334	4776
692.64713	4661
692.50091	4780
692.35469	4735
692.20846	4792
692.06223	4738
691.916	4758
691.76976	4923
691.62351	4786
691.47726	4729
691.33101	4726
691.18475	4651
691.03849	4746
690.89222	4683
690.74595	4673
690.59967	4709
690.45339	4655
690.3071	4630
690.16081	4536
690.01452	4674
689.86822	4683
689.72192	4587
689.57561	4649
689.42929	4732
689.28298	4687
689.13666	4548
688.99033	4653
688.844	4671
688.69766	4659
688.55132	4628
688.40498	4620
688.25863	4658
688.11228	4667
687.96592	4582
687.81956	4684
687.67319	4788
687.52682	4651
687.38044	4624
687.23406	4688
687.08768	4674
686.94129	4674
686.79489	4659
686.64849	4657
686.50209	4700
686.35568	4631
686.20927	4556
686.06285	4622
685.91643	4717
685.77001	4714
685.62357	4690
685.47714	4657
685.3307	4639
685.18426	4661
685.03781	4654
684.89136	4642
684.7449	4604
684.59844	4667
684.45197	4635
684.3055	4688
684.15902	4707
684.01254	4669
683.86606	4609
683.71957	4637
683.57307	4693
683.42658	4673
683.28007	4566
683.13357	4631
682.98705	4708
682.84054	4748
682.69402	4557
682.54749	4665
682.40096	4776
682.25443	4648
682.10789	4604
681.96134	4701
681.8148	4662
681.66824	4687
681.52169	4604
681.37513	4670
681.22856	4687
681.08199	4660
680.93541	4593
680.78883	4636
680.64225	4736
680.49566	4704
680.34907	4680
680.20247	4660
680.05587	4661
679.90926	4716
679.76265	4568
679.61603	4662
679.46941	4667
679.32279	4694
679.17616	4556
679.02952	4762
678.88289	4694
678.73624	4636
678.58959	4612
678.44294	4650
678.29629	4659
678.14962	4708
678.00296	4649
677.85629	4715
677.70961	4704
677.56293	4618
677.41625	4643
677.26956	4606
677.12287	4659
676.97617	4676
676.82947	4634
676.68276	4574
676.53605	4629
676.38934	4710
676.24262	4593
676.09589	4660
675.94916	4699
675.80243	4685
675.65569	4652
675.50895	4692
675.3622	4611
675.21545	4662
675.0687	4609
674.92193	4716
674.77517	4746
674.6284	4713
674.48163	4642
674.33485	4630
674.18806	4650
674.04128	4691
673.89448	4623
673.74769	4659
673.60088	4750
673.45408	4663
673.30727	4649
673.16045	4643
673.01363	4688
672.86681	4759
672.71998	4668
672.57315	4658
672.42631	4654
672.27947	4699
672.13262	4619
671.98577	4610
671.83891	4712
671.69205	4759
671.54519	4680
671.39832	4698
671.25145	4798
671.10457	4705
670.95768	4744
670.8108	4674
670.66391	4844
670.51701	4783
670.37011	4682
670.2232	4725
670.07629	4756
669.92938	4713
669.78246	4697
669.63554	4670
669.48861	4686
669.34167	4710
669.19474	4653
669.0478	4736
668.90085	4639
668.7539	4701
668.60694	4705
668.45998	4670
668.31302	4683
668.16605	4725
668.01908	4677
667.8721	4628
667.72512	4778
667.57813	4720
667.43114	4737
667.28414	4725
667.13714	4710
666.99014	4837
666.84313	4671
666.69611	4695
666.54909	4695
666.40207	4709
666.25504	4670
666.10801	4761
665.96097	4730
665.81393	4771
665.66689	4648
665.51984	4692
665.37278	4722
665.22572	4737
665.07866	4717
664.93159	4718
664.78452	4687
664.63744	4782
664.49036	4709
664.34327	4678
664.19618	4761
664.04909	4788
663.90199	4798
663.75488	4719
663.60777	4787
663.46066	4869
663.31354	4808
663.16642	4782
663.01929	4809
662.87216	4827
662.72502	4846
662.57788	4850
662.43074	4900
662.28359	4899
662.13643	4877
661.98927	4817
661.84211	4898
661.69494	4878
661.54777	4940
661.40059	4966
661.25341	4962
661.10622	4916
660.95903	4838
660.81184	4842
660.66464	4927
660.51744	4866
660.37023	4773
660.22301	4756
660.0758	4782
659.92857	4805
659.78135	4649
659.63412	4742
659.48688	4710
659.33964	4754
659.19239	4710
659.04514	4720
658.89789	4780
658.75063	4769
658.60337	4688
658.4561	4677
658.30883	4767
658.16155	4694
658.01427	4639
657.86699	4631
657.7197	4751
657.5724	4734
657.4251	4699
657.2778	4686
657.13049	4699
656.98318	4703
656.83586	4648
656.68854	4681
656.54121	4702
656.39388	4672
656.24655	4666
656.09921	4698
655.95186	4734
655.80451	4763
655.65716	4719
655.5098	4730
655.36244	4682
655.21507	4736
655.0677	4736
654.92032	4679
654.77294	4649
654.62556	4741
654.47817	4681
654.33078	4613
654.18338	4592
654.03597	4638
653.88857	4636
653.74115	4747
653.59374	4627
653.44632	4653
653.29889	4632
653.15146	4669
653.00402	4714
652.85658	4703
652.70914	4696
652.56169	4736
652.41424	4728
652.26678	4715
652.11932	4657
651.97185	4656
651.82438	4773
651.67691	4705
651.52943	4603
651.38194	4666
651.23445	4753
651.08696	4702
650.93946	4693
650.79196	4710
650.64445	4728
650.49694	4700
650.34942	4774
650.2019	4767
650.05438	4727
649.90685	4733
649.75931	4769
649.61177	4758
649.46423	4699
649.31668	4750
649.16913	4677
649.02157	4714
648.87401	4669
648.72644	4789
648.57887	4711
648.4313	4663
648.28372	4680
648.13613	4687
647.98855	4639
647.84095	4657
647.69335	4616
647.54575	4692
647.39814	4636
647.25053	4635
647.10292	4636
646.9553	4642
646.80767	4617
646.66004	4586
646.51241	4589
646.36477	4567
646.21713	4553
646.06948	4594
645.92183	4581
645.77417	4612
645.62651	4534
645.47884	4573
645.33117	4722
645.1835	4603
645.03582	4562
644.88814	4610
644.74045	4602
644.59276	4586
644.44506	4573
644.29736	4565
644.14965	4564
644.00194	4625
643.85422	4564
643.7065	4574
643.55878	4624
643.41105	4627
643.26332	4521
643.11558	4585
642.96784	4629
642.82009	4646
642.67234	4523
642.52458	4592
642.37682	4629
642.22905	4557
642.08128	4621
641.93351	4569
641.78573	4625
641.63795	4644
641.49016	4558
641.34237	4619
641.19457	4590
641.04677	4603
640.89896	4559
640.75115	4641
640.60334	4630
640.45552	4617
640.3077	4582
640.15987	4611
640.01203	4629
639.8642	4560
639.71635	4547
639.56851	4642
639.42066	4655
639.2728	4604
639.12494	4578
638.97708	4618
638.82921	4641
638.68133	4675
638.53345	4664
638.38557	4478
638.23768	4687
638.08979	4642
637.9419	4482
637.79399	4622
637.64609	4648
637.49818	4699
637.35026	4563
637.20235	4607
637.05442	4592
636.90649	4567
636.75856	4574
636.61062	4574
636.46268	4592
636.31474	4655
636.16678	4521
636.01883	4574
635.87087	4577
635.72291	4571
635.57494	4541
635.42696	4569
635.27899	4519
635.131	4568
634.98302	4474
634.83502	4561
634.68703	4592
634.53903	4614
634.39102	4552
634.24301	4557
634.095	4565
633.94698	4592
633.79896	4502
633.65093	4661
633.5029	4651
633.35486	4733
633.20682	4635
633.05877	4696
632.91072	4745
632.76267	4752
632.61461	4614
632.46655	4740
632.31848	4618
632.1704	4698
632.02233	4694
631.87425	4763
631.72616	4705
631.57807	4651
631.42997	4593
631.28187	4570
631.13377	4625
630.98566	4585
630.83755	4560
630.68943	4601
630.5413	4578
630.39318	4664
630.24505	4534
630.09691	4581
629.94877	4555
629.80062	4636
629.65247	4502
629.50432	4579
629.35616	4584
629.208	4582
629.05983	4518
628.91166	4585
628.76348	4592
628.6153	4605
628.46711	4600
628.31892	4575
628.17073	4655
628.02253	4581
627.87432	4597
627.72611	4586
627.5779	4613
627.42968	4624
627.28146	4537
627.13323	4572
626.985	4570
626.83677	4588
626.68853	4534
626.54028	4644
626.39203	4604
626.24378	4578
626.09552	4586
625.94726	4553
625.79899	4505
625.65072	4566
625.50244	4618
625.35416	4522
625.20587	4626
625.05758	4629
624.90929	4512
624.76099	4544
624.61269	4596
624.46438	4630
624.31607	4530
624.16775	4571
624.01943	4637
623.8711	4584
623.72277	4570
623.57443	4527
623.42609	4616
623.27775	4629
623.1294	4542
622.98105	4516
622.83269	4590
622.68433	4621
622.53596	4527
622.38759	4556
622.23921	4567
622.09083	4531
621.94245	4618
621.79406	4545
621.64566	4561
621.49726	4627
621.34886	4652
621.20045	4633
621.05204	4657
620.90362	4617
620.7552	4540
620.60678	4614
620.45835	4638
620.30991	4637
620.16147	4637
620.01303	4591
619.86458	4644
619.71613	4675
619.56767	4646
619.41921	4670
619.27074	4655
619.12227	4630
618.97379	4700
618.82531	4685
618.67683	4819
618.52834	4695
618.37985	4686
618.23135	4755
618.08285	4820
617.93434	4778
617.78583	4699
617.63731	4709
617.48879	4819
617.34026	4766
617.19173	4763
617.0432	4710
616.89466	4725
616.74612	4734
616.59757	4716
616.44902	4740
616.30046	4724
616.1519	4774
616.00333	4797
615.85476	4728
615.70619	4826
615.55761	4741
615.40902	4743
615.26043	4766
615.11184	4755
614.96324	4721
614.81464	4745
614.66603	4755
614.51742	4843
614.36881	4815
614.22019	4780
614.07156	4752
613.92293	4806
613.7743	4843
613.62566	4738
613.47702	4763
613.32837	4867
613.17972	4827
613.03106	4831
612.8824	4755
612.73373	4791
612.58506	4769
612.43639	4695
612.28771	4746
612.13903	4778
611.99034	4780
611.84164	4703
611.69295	4804
611.54425	4791
611.39554	4783
611.24683	4763
611.09811	4832
610.94939	4781
610.80067	4783
610.65194	4793
610.50321	4769
610.35447	4799
610.20573	4806
610.05698	4820
609.90823	4733
609.75947	4811
609.61071	4793
609.46194	4784
609.31317	4792
609.1644	4808
609.01562	4786
608.86684	4855
608.71805	4777
608.56926	4788
608.42046	4775
608.27166	4794
608.12285	4731
607.97404	4851
607.82523	4828
607.67641	4807
607.52759	4742
607.37876	4782
607.22992	4857
607.08109	4823
606.93224	4761
606.7834	4786
606.63455	4797
606.48569	4772
606.33683	4772
606.18797	4807
606.0391	4837
605.89022	4797
605.74134	4746
605.59246	4792
605.44357	4745
605.29468	4764
605.14579	4828
604.99688	4749
604.84798	4770
604.69907	4752
604.55015	4723
604.40124	4817
604.25231	4846
604.10338	4799
603.95445	4774
603.80551	4867
603.65657	4755
603.50763	4810
603.35868	4770
603.20972	4856
603.06076	4866
602.9118	4766
602.76283	4814
602.61385	4835
602.46488	4829
602.31589	4799
602.16691	4861
602.01792	4915
601.86892	4778
601.71992	4726
601.57091	4792
601.4219	4832
601.27289	4851
601.12387	4765
600.97485	4826
600.82582	4787
600.67679	4819
600.52775	4836
600.37871	4804
600.22967	4850
600.08062	4764
599.93156	4839
599.7825	4773
599.63344	4829
599.48437	4801
599.3353	4778
599.18622	4722
599.03714	4807
598.88805	4774
598.73896	4813
598.58986	4695
598.44076	4717
598.29166	4798
598.14255	4783
597.99344	4743
597.84432	4810
597.6952	4817
597.54607	4763
597.39694	4775
597.2478	4786
597.09866	4775
596.94951	4770
596.80036	4701
596.65121	4859
596.50205	4868
596.35289	4818
596.20372	4793
596.05455	4801
595.90537	4900
595.75619	4740
595.607	4679
595.45781	4850
595.30862	4766
595.15942	4769
595.01021	4747
594.86101	4831
594.71179	4787
594.56257	4760
594.41335	4807
594.26413	4790
594.11489	4826
593.96566	4807
593.81642	4765
593.66717	4803
593.51792	4831
593.36867	4837
593.21941	4760
593.07015	4831
592.92088	4783
592.77161	4760
592.62233	4728
592.47305	4773
592.32377	4784
592.17448	4730
592.02518	4767
591.87588	4792
591.72658	4841
591.57727	4726
591.42796	4739
591.27864	4757
591.12932	4765
590.97999	4669
590.83066	4733
590.68133	4756
590.53199	4790
590.38264	4741
590.23329	4771
590.08394	4736
589.93458	4726
589.78522	4743
589.63585	4727
589.48648	4772
589.33711	4831
589.18772	4710
589.03834	4834
588.88895	4689
588.73956	4801
588.59016	4794
588.44075	4813
588.29135	4738
588.14193	4779
587.99252	4754
587.8431	4748
587.69367	4751
587.54424	4744
587.39481	4722
587.24537	4717
587.09592	4721
586.94647	4794
586.79702	4780
586.64756	4804
586.4981	4827
586.34863	4813
586.19916	4733
586.04969	4792
585.90021	4892
585.75072	4851
585.60123	4756
585.45174	4802
585.30224	4851
585.15274	4881
585.00323	4749
584.85372	4835
584.7042	4751
584.55468	4827
584.40516	4717
584.25563	4713
584.10609	4779
583.95655	4801
583.80701	4736
583.65746	4783
583.50791	4773
583.35835	4737
583.20879	4704
583.05923	4749
582.90966	4796
582.76008	4739
582.6105	4724
582.46092	4760
582.31133	4761
582.16173	4801
582.01214	4635
581.86253	4704
581.71293	4694
581.56332	4781
581.4137	4778
581.26408	4866
581.11445	4843
580.96483	4659
580.81519	4721
580.66555	4775
580.51591	4717
580.36626	4696
580.21661	4724
580.06695	4762
579.91729	4755
579.76763	4792
579.61796	4620
579.46828	4758
579.3186	4726
579.16892	4769
579.01923	4799
578.86954	4630
578.71984	4778
578.57014	4809
578.42043	4666
578.27072	4710
578.12101	4747
577.97129	4743
577.82156	4687
577.67183	4709
577.5221	4784
577.37236	4683
577.22262	4754
577.07287	4705
576.92312	4808
576.77336	4752
576.6236	4725
576.47384	4752
576.32407	4800
576.17429	4747
576.02452	4734
575.87473	4777
575.72494	4760
575.57515	4823
575.42536	4718
575.27555	4716
575.12575	4697
574.97594	4700
574.82612	4711
574.6763	4756
574.52648	4738
574.37665	4766
574.22682	4733
574.07698	4816
573.92714	4704
573.77729	4726
573.62744	4735
573.47758	4736
573.32772	4701
573.17786	4806
573.02799	4771
572.87812	4737
572.72824	4762
572.57836	4790
572.42847	4795
572.27858	4740
572.12868	4857
571.97878	4801
571.82887	4763
571.67896	4802
571.52905	4819
571.37913	4791
571.22921	4740
571.07928	4744
570.92935	4767
570.77941	4767
570.62947	4735
570.47952	4763
570.32957	4789
570.17962	4893
570.02966	4780
569.87969	4758
569.72972	4886
569.57975	4859
569.42977	4729
569.27979	4790
569.1298	4804
568.97981	4804
568.82981	4748
568.67981	4730
568.52981	4865
568.3798	4898
568.22979	4821
568.07977	4820
567.92974	4796
567.77972	4832
567.62968	4825
567.47965	4805
567.32961	4825
567.17956	4842
567.02951	4849
566.87946	4745
566.7294	4815
566.57933	4861
566.42926	4734
566.27919	4767
566.12911	4779
565.97903	4888
565.82895	4829
565.67885	4854
565.52876	4969
565.37866	4728
565.22855	4831
565.07845	4894
564.92833	4856
564.77821	4866
564.62809	4797
564.47796	4801
564.32783	4929
564.1777	4809
564.02756	4808
563.87741	4824
563.72726	4805
563.57711	4830
563.42695	4955
563.27678	4878
563.12662	4888
562.97644	4840
