804.46256	4625
804.31984	4571
804.17712	4619
804.03439	4627
803.89167	4647
803.74893	4617
803.60619	4635
803.46345	4625
803.3207	4558
803.17795	4597
803.0352	4646
802.89244	4669
802.74967	4482
802.6069	4613
802.46413	4569
802.32135	4636
802.17856	4652
802.03578	4580
801.89298	4576
801.75019	4605
801.60738	4627
801.46458	4596
801.32177	4618
801.17895	4589
801.03613	4496
800.89331	4580
800.75048	4639
800.60765	4586
800.46481	4548
800.32197	4588
800.17912	4598
800.03627	4575
799.89341	4606
799.75055	4565
799.60769	4561
799.46482	4584
799.32195	4535
799.17907	4625
799.03618	4603
798.8933	4552
798.7504	4558
798.60751	4560
798.46461	4622
798.3217	4534
798.17879	4553
798.03588	4541
797.89296	4609
797.75003	4560
797.60711	4561
797.46417	4656
797.32124	4657
797.17829	4574
797.03535	4528
796.8924	4530
796.74944	4620
796.60648	4574
796.46352	4510
796.32055	4535
796.17757	4612
796.0346	4592
795.89161	4620
795.74863	4533
795.60564	4573
795.46264	4537
795.31964	4597
795.17663	4567
795.03362	4625
794.89061	4656
794.74759	4558
794.60457	4579
794.46154	4607
794.31851	4531
794.17547	4587
794.03243	4579
793.88938	4644
793.74633	4550
793.60328	4601
793.46022	4467
793.31716	4577
793.17409	4533
793.03101	4582
792.88794	4568
792.74485	4546
792.60177	4597
792.45868	4574
792.31558	4598
792.17248	4526
792.02938	4617
791.88627	4589
791.74315	4560
791.60003	4563
791.45691	4609
791.31378	4576
791.17065	4589
791.02752	4554
790.88438	4568
790.74123	4517
790.59808	4543
790.45493	4513
790.31177	4590
790.1686	4528
790.02544	4546
789.88226	4521
789.73909	4554
789.5959	4487
789.45272	4538
789.30953	4568
789.16633	4576
789.02313	4572
788.87993	4583
788.73672	4583
788.59351	4668
788.45029	4493
788.30707	4537
788.16384	4590
788.02061	4538
787.87737	4515
787.73413	4630
787.59089	4570
787.44764	4492
787.30438	4618
787.16112	4544
787.01786	4602
786.87459	4572
786.73132	4626
786.58805	4570
786.44476	4620
786.30148	4593
786.15819	4506
786.01489	4588
785.87159	4516
785.72829	4546
785.58498	4511
785.44167	4565
785.29835	4585
785.15503	4585
785.0117	4615
784.86837	4561
784.72504	4609
784.5817	4520
784.43835	4569
784.295	4538
784.15165	4655
784.00829	4590
783.86493	4507
783.72156	4564
783.57819	4532
783.43482	4618
783.29143	4537
783.14805	4622
783.00466	4594
782.86127	4607
782.71787	4491
782.57446	4572
782.43106	4554
782.28764	4626
782.14423	4540
782.0008	4577
781.85738	4631
781.71395	4581
781.57051	4603
781.42707	4565
781.28363	4562
781.14018	4549
780.99673	4579
780.85327	4699
780.70981	4553
780.56634	4570
780.42287	4581
780.2794	4513
780.13591	4579
779.99243	4558
779.84894	4526
779.70545	4526
779.56195	4566
779.41845	4605
779.27494	4563
779.13143	4535
778.98791	4560
778.84439	4528
778.70086	4505
778.55733	4598
778.4138	4605
778.27026	4622
778.12672	4488
777.98317	4569
777.83962	4544
777.69606	4547
777.5525	4558
777.40893	4554
777.26536	4547
777.12178	4621
776.97821	4601
776.83462	4560
776.69103	4481
776.54744	4575
776.40384	4559
776.26024	4520
776.11663	4572
775.97302	4581
775.8294	4593
775.68578	4571
775.54216	4584
775.39853	4523
775.25489	4524
775.11126	4491
774.96761	4576
774.82397	4546
774.68031	4589
774.53666	4551
774.393	4568
774.24933	4574
774.10566	4550
773.96198	4556
773.81831	4527
773.67462	4614
773.53093	4522
773.38724	4577
773.24354	4554
773.09984	4561
772.95613	4575
772.81242	4474
772.66871	4623
772.52499	4623
772.38126	4501
772.23753	4582
772.0938	4544
771.95006	4580
771.80632	4604
771.66257	4616
771.51882	4549
771.37506	4570
771.2313	4476
771.08754	4554
770.94377	4551
770.79999	4570
770.65622	4507
770.51243	4543
770.36864	4550
770.22485	4601
770.08105	4534
769.93725	4518
769.79345	4603
769.64964	4530
769.50582	4571
769.362	4554
769.21818	4600
769.07435	4570
768.93052	4608
768.78668	4584
768.64284	4556
768.49899	4596
768.35514	4576
768.21128	4548
768.06742	4548
767.92356	4558
767.77969	4612
767.63581	4545
767.49194	4553
767.34805	4622
767.20417	4490
767.06027	4553
766.91638	4588
766.77248	4574
766.62857	4530
766.48466	4573
766.34075	4567
766.19683	4622
766.0529	4438
765.90897	4567
765.76504	4566
765.6211	4600
765.47716	4470
765.33322	4506
765.18927	4525
765.04531	4570
764.90135	4568
764.75739	4618
764.61342	4552
764.46944	4578
764.32547	4504
764.18148	4540
764.0375	4607
763.8935	4566
763.74951	4569
763.60551	4574
763.4615	4555
763.31749	4603
763.17348	4603
763.02946	4616
762.88544	4598
762.74141	4595
762.59738	4516
762.45334	4579
762.3093	4587
762.16525	4558
762.0212	4545
761.87715	4540
761.73309	4612
761.58902	4561
761.44496	4603
761.30088	4557
761.15681	4645
761.01272	4547
760.86864	4512
760.72455	4552
760.58045	4623
760.43635	4543
760.29225	4493
760.14814	4608
760.00402	4592
759.8599	4579
759.71578	4500
759.57165	4516
759.42752	4546
759.28339	4531
759.13925	4610
758.9951	4632
758.85095	4604
758.7068	4558
758.56264	4555
758.41847	4571
758.27431	4574
758.13013	4564
757.98596	4564
757.84177	4573
757.69759	4574
757.5534	4528
757.4092	4605
757.265	4603
757.1208	4631
756.97659	4531
756.83238	4529
756.68816	4541
756.54394	4587
756.39971	4568
756.25548	4488
756.11124	4472
755.967	4567
755.82276	4568
755.67851	4554
755.53425	4563
755.39	4591
755.24573	4609
755.10146	4538
754.95719	4613
754.81292	4639
754.66864	4509
754.52435	4652
754.38006	4574
754.23576	4553
754.09147	4603
753.94716	4590
753.80285	4541
753.65854	4535
753.51422	4586
753.3699	4572
753.22557	4503
753.08124	4588
752.93691	4515
752.79257	4585
752.64822	4523
752.50388	4599
752.35952	4613
752.21516	4612
752.0708	4520
751.92643	4550
751.78206	4576
751.63769	4568
751.49331	4570
751.34892	4569
751.20453	4531
751.06014	4554
750.91574	4490
750.77133	4609
750.62693	4580
750.48251	4588
750.3381	4552
750.19368	4643
750.04925	4562
749.90482	4627
749.76038	4504
749.61595	4658
749.4715	4584
749.32705	4539
749.1826	4494
749.03814	4580
748.89368	4559
748.74921	4528
748.60474	4519
748.46027	4543
748.31579	4523
748.1713	4455
748.02681	4588
747.88232	4523
747.73782	4503
747.59332	4523
747.44881	4521
747.3043	4521
747.15978	4579
747.01526	4583
746.87074	4565
746.72621	4548
746.58167	4574
746.43713	4571
746.29259	4574
746.14804	4584
746.00349	4591
745.85893	4569
745.71437	4542
745.5698	4567
745.42523	4571
745.28066	4575
745.13608	4559
744.99149	4598
744.8469	4558
744.70231	4561
744.55771	4546
744.41311	4589
744.2685	4512
744.12389	4482
743.97928	4591
743.83466	4529
743.69003	4541
743.5454	4596
743.40077	4509
743.25613	4593
743.11149	4568
742.96684	4588
742.82219	4554
742.67753	4533
742.53287	4574
742.3882	4593
742.24353	4515
742.09886	4598
741.95418	4553
741.80949	4587
741.66481	4627
741.52011	4573
741.37541	4538
741.23071	4603
741.08601	4556
740.9413	4574
740.79658	4605
740.65186	4525
740.50714	4557
740.36241	4543
740.21767	4618
740.07293	4556
739.92819	4620
739.78344	4611
739.63869	4551
739.49394	4561
739.34918	4537
739.20441	4572
739.05964	4503
738.91487	4501
738.77009	4578
738.6253	4601
738.48052	4559
738.33572	4618
738.19093	4542
738.04613	4599
737.90132	4573
737.75651	4517
737.61169	4517
737.46687	4537
737.32205	4561
737.17722	4463
737.03239	4524
736.88755	4571
736.74271	4539
736.59786	4590
736.45301	4543
736.30816	4670
736.1633	4566
736.01843	4544
735.87356	4656
735.72869	4541
735.58381	4668
735.43893	4518
735.29404	4597
735.14915	4552
735.00425	4560
734.85935	4536
734.71444	4520
734.56953	4577
734.42462	4571
734.2797	4549
734.13478	4534
733.98985	4598
733.84491	4541
733.69998	4555
733.55504	4572
733.41009	4591
733.26514	4603
733.12018	4511
732.97522	4567
732.83026	4576
732.68529	4613
732.54032	4540
732.39534	4618
732.25036	4597
732.10537	4535
731.96038	4528
731.81538	4572
731.67038	4595
731.52538	4658
731.38037	4499
731.23535	4601
731.09033	4624
730.94531	4536
730.80028	4562
730.65525	4602
730.51021	4594
730.36517	4573
730.22013	4528
730.07508	4585
729.93002	4613
729.78496	4574
729.6399	4574
729.49483	4528
729.34976	4556
729.20468	4593
729.0596	4525
728.91451	4559
728.76942	4601
728.62432	4603
728.47922	4455
728.33412	4600
728.18901	4620
728.0439	4569
727.89878	4547
727.75366	4627
727.60853	4610
727.4634	4514
727.31826	4541
727.17312	4531
727.02797	4621
726.88282	4623
726.73767	4504
726.59251	4574
726.44735	4604
726.30218	4559
726.15701	4485
726.01183	4540
725.86665	4568
725.72146	4634
725.57627	4528
725.43108	4606
725.28588	4568
725.14067	4598
724.99546	4523
724.85025	4558
724.70503	4596
724.55981	4574
724.41458	4552
724.26935	4619
724.12412	4579
723.97888	4571
723.83363	4551
723.68838	4579
723.54313	4574
723.39787	4550
723.25261	4530
723.10734	4562
722.96207	4594
722.81679	4591
722.67151	4577
722.52622	4545
722.38093	4618
722.23564	4532
722.09034	4555
721.94504	4516
721.79973	4549
721.65442	4599
721.5091	4563
721.36378	4519
721.21845	4575
721.07312	4616
720.92778	4516
720.78244	4619
720.6371	4591
720.49175	4583
720.3464	4576
720.20104	4517
720.05568	4515
719.91031	4577
719.76494	4557
719.61956	4563
719.47418	4583
719.3288	4519
719.18341	4543
719.03801	4564
718.89261	4568
718.74721	4578
718.6018	4536
718.45639	4538
718.31097	4636
718.16555	4584
718.02013	4541
717.8747	4479
717.72926	4580
717.58382	4597
717.43838	4577
717.29293	4517
717.14748	4583
717.00202	4595
716.85656	4529
716.71109	4528
716.56562	4565
716.42014	4604
716.27466	4527
716.12918	4517
715.98369	4618
715.83819	4542
715.6927	4480
715.54719	4508
715.40169	4558
715.25617	4566
715.11066	4553
714.96514	4623
714.81961	4578
714.67408	4606
714.52855	4524
714.38301	4634
714.23746	4618
714.09192	4591
713.94636	4568
713.80081	4492
713.65524	4584
713.50968	4583
713.36411	4530
713.21853	4526
713.07295	4576
712.92737	4567
712.78178	4563
712.63619	4548
712.49059	4558
712.34499	4591
712.19938	4607
712.05377	4552
711.90815	4476
711.76253	4583
711.61691	4555
711.47128	4579
711.32564	4547
711.18	4555
711.03436	4589
710.88871	4540
710.74306	4580
710.59741	4537
710.45174	4623
710.30608	4569
710.16041	4611
710.01473	4645
709.86905	4545
709.72337	4590
709.57768	4516
709.43199	4539
709.28629	4589
709.14059	4543
708.99488	4612
708.84917	4547
708.70346	4565
708.55774	4508
708.41201	4614
708.26628	4599
708.12055	4513
707.97481	4588
707.82907	4568
707.68332	4587
707.53757	4585
707.39181	4618
707.24605	4575
707.10029	4573
706.95452	4573
706.80874	4580
706.66297	4541
706.51718	4582
706.37139	4492
706.2256	4598
706.0798	4476
705.934	4554
705.7882	4532
705.64239	4567
705.49657	4550
705.35075	4562
705.20493	4542
705.0591	4588
704.91327	4518
704.76743	4563
704.62159	4539
704.47574	4614
704.32989	4544
704.18403	4606
704.03817	4583
703.89231	4570
703.74644	4557
703.60056	4610
703.45469	4529
703.3088	4569
703.16292	4625
703.01702	4619
702.87113	4614
702.72523	4532
702.57932	4627
702.43341	4644
702.2875	4538
702.14158	4521
701.99565	4574
701.84973	4597
701.70379	4558
701.55786	4591
701.41191	4532
701.26597	4500
701.12002	4591
700.97406	4544
700.8281	4544
700.68214	4597
700.53617	4521
700.39019	4552
700.24422	4659
700.09823	4573
699.95225	4544
699.80626	4572
699.66026	4572
699.51426	4671
699.36825	4465
699.22224	4573
699.07623	4585
698.93021	4701
698.78419	4550
698.63816	4531
698.49213	4529
698.34609	4602
698.20005	4459
698.05401	4529
697.90795	4605
697.7619	4598
697.61584	4512
697.46978	4529
697.32371	4526
697.17764	4463
697.03156	4575
696.88548	4528
696.73939	4541
696.5933	4580
696.4472	4563
696.3011	4615
696.155	4570
696.00889	4570
695.86278	4545
695.71666	4582
695.57053	4513
695.42441	4542
695.27828	4576
695.13214	4571
694.986	4557
694.83985	4590
694.6937	4602
694.54755	4531
694.40139	4648
694.25523	4560
694.10906	4557
693.96289	4518
693.81671	4579
693.67053	4643
693.52434	4587
693.37815	4587
693.23196	4570
693.08576	4578
692.93955	4565
692.79334	4518
692.64713	4602
692.50091	4568
692.35469	4534
692.20846	4589
692.06223	4635
691.916	4585
691.76976	4593
691.62351	4542
691.47726	4544
691.33101	4568
691.18475	4538
691.03849	4592
690.89222	4539
690.74595	4595
690.59967	4529
690.45339	4599
690.3071	4484
690.16081	4558
690.01452	4550
689.86822	4614
689.72192	4550
689.57561	4641
689.42929	4556
689.28298	4499
689.13666	4555
688.99033	4591
688.844	4539
688.69766	4504
688.55132	4634
688.40498	4561
688.25863	4522
688.11228	4579
687.96592	4571
687.81956	4568
687.67319	4624
687.52682	4558
687.38044	4559
687.23406	4574
687.08768	4625
686.94129	4564
686.79489	4582
686.64849	4552
686.50209	4526
686.35568	4618
686.20927	4591
686.06285	4579
685.91643	4609
685.77001	4598
685.62357	4583
685.47714	4603
685.3307	4495
685.18426	4597
685.03781	4524
684.89136	4584
684.7449	4518
684.59844	4616
684.45197	4563
684.3055	4583
684.15902	4592
684.01254	4551
683.86606	4587
683.71957	4470
683.57307	4512
683.42658	4581
683.28007	4567
683.13357	4484
682.98705	4565
682.84054	4558
682.69402	4606
682.54749	4528
682.40096	4534
682.25443	4570
682.10789	4552
681.96134	4548
681.8148	4398
681.66824	4594
681.52169	4539
681.37513	4627
681.22856	4573
681.08199	4651
680.93541	4550
680.78883	4556
680.64225	4611
680.49566	4556
680.34907	4576
680.20247	4583
680.05587	4549
679.90926	4601
679.76265	4620
679.61603	4557
679.46941	4579
679.32279	4593
679.17616	4565
679.02952	4583
678.88289	4607
678.73624	4586
678.58959	4606
678.44294	4524
678.29629	4593
678.14962	4546
678.00296	4558
677.85629	4586
677.70961	4619
677.56293	4585
677.41625	4663
677.26956	4610
677.12287	4516
676.97617	4546
676.82947	4545
676.68276	4501
676.53605	4575
676.38934	4580
676.24262	4542
676.09589	4528
675.94916	4534
675.80243	4559
675.65569	4649
675.50895	4542
675.3622	4565
675.21545	4563
675.0687	4619
674.92193	4577
674.77517	4637
674.6284	4579
674.48163	4554
674.33485	4525
674.18806	4576
674.04128	4552
673.89448	4605
673.74769	4633
673.60088	4573
673.45408	4545
673.30727	4581
673.16045	4521
673.01363	4586
672.86681	4614
672.71998	4607
672.57315	4546
672.42631	4470
672.27947	4646
672.13262	4563
671.98577	4630
671.83891	4532
671.69205	4554
671.54519	4573
671.39832	4569
671.25145	4535
671.10457	4559
670.95768	4597
670.8108	4604
670.66391	4644
670.51701	4575
670.37011	4606
670.2232	4551
670.07629	4611
669.92938	4591
669.78246	4614
669.63554	4537
669.48861	4536
669.34167	4568
669.19474	4502
669.0478	4530
668.90085	4476
668.7539	4574
668.60694	4636
668.45998	4532
668.31302	4574
668.16605	4574
668.01908	4611
667.8721	4535
667.72512	4620
667.57813	4508
667.43114	4527
667.28414	4597
667.13714	4540
666.99014	4551
666.84313	4641
666.69611	4572
666.54909	4505
666.40207	4503
666.25504	4580
666.10801	4586
665.96097	4557
665.81393	4574
665.66689	4558
665.51984	4514
665.37278	4581
665.22572	4535
665.07866	4545
664.93159	4540
664.78452	4604
664.63744	4506
664.49036	4611
664.34327	4588
664.19618	4508
664.04909	4491
663.90199	4571
663.75488	4589
663.60777	4575
663.46066	4519
663.31354	4622
663.16642	4547
663.01929	4504
662.87216	4553
662.72502	4589
662.57788	4584
662.43074	4532
662.28359	4574
662.13643	4614
661.98927	4549
661.84211	4529
661.69494	4556
661.54777	4584
661.40059	4623
661.25341	4530
661.10622	4532
660.95903	4541
660.81184	4653
660.66464	4592
660.51744	4529
660.37023	4546
660.22301	4583
660.0758	4510
659.92857	4547
659.78135	4598
659.63412	4514
659.48688	4593
659.33964	4499
659.19239	4508
659.04514	4553
658.89789	4564
658.75063	4659
658.60337	4597
658.4561	4594
658.30883	4518
658.16155	4560
658.01427	4584
657.86699	4513
657.7197	4685
657.5724	4585
657.4251	4538
657.2778	4569
657.13049	4553
656.98318	4572
656.83586	4623
656.68854	4546
656.54121	4528
656.39388	4528
656.24655	4540
656.09921	4619
655.95186	4573
655.80451	4596
655.65716	4522
655.5098	4612
655.36244	4513
655.21507	4607
655.0677	4601
654.92032	4582
654.77294	4539
654.62556	4554
654.47817	4504
654.33078	4501
654.18338	4508
654.03597	4457
653.88857	4565
653.74115	4596
653.59374	4469
653.44632	4511
653.29889	4546
653.15146	4548
653.00402	4537
652.85658	4561
652.70914	4621
652.56169	4549
652.41424	4566
652.26678	4477
652.11932	4589
651.97185	4511
651.82438	4503
651.67691	4560
651.52943	4591
651.38194	4496
651.23445	4531
651.08696	4550
650.93946	4529
650.79196	4617
650.64445	4575
650.49694	4552
650.34942	4653
650.2019	4581
650.05438	4516
649.90685	4555
649.75931	4633
649.61177	4605
649.46423	4539
649.31668	4593
649.16913	4559
649.02157	4600
648.87401	4475
648.72644	4584
648.57887	4486
648.4313	4535
648.28372	4526
648.13613	4572
647.98855	4560
647.84095	4517
647.69335	4501
647.54575	4579
647.39814	4561
647.25053	4560
647.10292	4535
646.9553	4472
646.80767	4464
646.66004	4474
646.51241	4461
646.36477	4447
646.21713	4427
646.06948	4490
645.92183	4477
645.77417	4484
645.62651	4507
645.47884	4504
645.33117	4598
645.1835	4585
645.03582	4545
644.88814	4558
644.74045	4571
644.59276	4559
644.44506	4596
644.29736	4511
644.14965	4550
644.00194	4511
643.85422	4538
643.7065	4556
643.55878	4561
643.41105	4556
643.26332	4550
643.11558	4489
642.96784	4577
642.82009	4482
642.67234	4595
642.52458	4541
642.37682	4570
642.22905	4535
642.08128	4551
641.93351	4538
641.78573	4551
641.63795	4564
641.49016	4571
641.34237	4640
641.19457	4536
641.04677	4613
640.89896	4543
640.75115	4539
640.60334	4545
640.45552	4593
640.3077	4536
640.15987	4500
640.01203	4563
639.8642	4509
639.71635	4544
639.56851	4557
639.42066	4512
639.2728	4559
639.12494	4598
638.97708	4518
638.82921	4511
638.68133	4673
638.53345	4658
638.38557	4470
638.23768	4573
638.08979	4537
637.9419	4535
637.79399	4600
637.64609	4585
637.49818	4559
637.35026	4611
637.20235	4604
637.05442	4629
636.90649	4548
636.75856	4487
636.61062	4564
636.46268	4524
636.31474	4640
636.16678	4638
636.01883	4573
635.87087	4563
635.72291	4506
635.57494	4588
635.42696	4583
635.27899	4612
635.131	4594
634.98302	4632
634.83502	4595
634.68703	4561
634.53903	4602
634.39102	4602
634.24301	4564
634.095	4554
633.94698	4657
633.79896	4756
633.65093	5043
633.5029	5547
633.35486	6062
633.20682	6600
633.05877	7050
632.91072	7455
632.76267	7866
632.61461	8279
632.46655	8119
632.31848	7987
632.1704	8030
632.02233	7700
631.87425	7604
631.72616	7345
631.57807	7104
631.42997	7030
631.28187	6712
631.13377	6302
630.98566	6040
630.83755	5877
630.68943	5458
630.5413	5338
630.39318	4966
630.24505	4746
630.09691	4650
629.94877	4649
629.80062	4571
629.65247	4564
629.50432	4535
629.35616	4589
629.208	4611
629.05983	4616
628.91166	4588
628.76348	4567
628.6153	4611
628.46711	4555
628.31892	4531
628.17073	4560
628.02253	4589
627.87432	4496
627.72611	4567
627.5779	4477
627.42968	4506
627.28146	4578
627.13323	4569
626.985	4570
626.83677	4505
626.68853	4499
626.54028	4638
626.39203	4561
626.24378	4563
626.09552	4582
625.94726	4409
625.79899	4594
625.65072	4524
625.50244	4568
625.35416	4640
625.20587	4565
625.05758	4548
624.90929	4585
624.76099	4555
624.61269	4538
624.46438	4550
624.31607	4536
624.16775	4569
624.01943	4524
623.8711	4549
623.72277	4571
623.57443	4541
623.42609	4531
623.27775	4534
623.1294	4554
622.98105	4549
622.83269	4481
622.68433	4598
622.53596	4522
622.38759	4666
622.23921	4525
622.09083	4562
621.94245	4591
621.79406	4567
621.64566	4515
621.49726	4518
621.34886	4601
621.20045	4585
621.05204	4512
620.90362	4563
620.7552	4534
620.60678	4517
620.45835	4554
620.30991	4550
620.16147	4540
620.01303	4544
619.86458	4533
619.71613	4614
619.56767	4633
619.41921	4546
619.27074	4591
619.12227	4561
618.97379	4581
618.82531	4608
618.67683	4542
618.52834	4582
618.37985	4611
618.23135	4557
618.08285	4709
617.93434	4534
617.78583	4603
617.63731	4574
617.48879	4549
617.34026	4561
617.19173	4579
617.0432	4607
616.89466	4533
616.74612	4553
616.59757	4530
616.44902	4534
616.30046	4512
616.1519	4553
616.00333	4551
615.85476	4636
615.70619	4496
615.55761	4491
615.40902	4581
615.26043	4584
615.11184	4474
614.96324	4482
614.81464	4526
614.66603	4620
614.51742	4529
614.36881	4555
614.22019	4503
614.07156	4636
613.92293	4546
613.7743	4525
613.62566	4519
613.47702	4532
613.32837	4528
613.17972	4552
613.03106	4653
612.8824	4641
612.73373	4490
612.58506	4504
612.43639	4581
612.28771	4557
612.13903	4562
611.99034	4561
611.84164	4532
611.69295	4563
611.54425	4579
611.39554	4547
611.24683	4520
611.09811	4650
610.94939	4587
610.80067	4548
610.65194	4590
610.50321	4655
610.35447	4622
610.20573	4518
610.05698	4607
609.90823	4566
609.75947	4539
609.61071	4525
609.46194	4588
609.31317	4620
609.1644	4509
609.01562	4579
608.86684	4569
608.71805	4629
608.56926	4551
608.42046	4604
608.27166	4596
608.12285	4595
607.97404	4583
607.82523	4556
607.67641	4611
607.52759	4599
607.37876	4529
607.22992	4551
607.08109	4650
606.93224	4531
606.7834	4546
606.63455	4540
606.48569	4606
606.33683	4552
606.18797	4536
606.0391	4541
605.89022	4606
605.74134	4589
605.59246	4504
605.44357	4590
605.29468	4548
605.14579	4586
604.99688	4523
604.84798	4467
604.69907	4527
604.55015	4585
604.40124	4517
604.25231	4563
604.10338	4573
603.95445	4587
603.80551	4535
603.65657	4563
603.50763	4621
603.35868	4520
603.20972	4585
603.06076	4602
602.9118	4542
602.76283	4632
602.61385	4546
602.46488	4530
602.31589	4539
602.16691	4584
602.01792	4461
601.86892	4591
601.71992	4559
601.57091	4573
601.4219	4434
601.27289	4516
601.12387	4588
600.97485	4581
600.82582	4501
600.67679	4558
600.52775	4546
600.37871	4623
600.22967	4565
600.08062	4479
599.93156	4581
599.7825	4589
599.63344	4468
599.48437	4521
599.3353	4568
599.18622	4561
599.03714	4534
598.88805	4566
598.73896	4565
598.58986	4535
598.44076	4618
598.29166	4556
598.14255	4588
597.99344	4609
597.84432	4490
597.6952	4541
597.54607	4560
597.39694	4555
597.2478	4564
597.09866	4490
596.94951	4584
596.80036	4526
596.65121	4547
596.50205	4467
596.35289	4640
596.20372	4526
596.05455	4536
595.90537	4533
595.75619	4592
595.607	4594
595.45781	4524
595.30862	4546
595.15942	4585
595.01021	4522
594.86101	4518
594.71179	4588
594.56257	4568
594.41335	4643
594.26413	4530
594.11489	4551
593.96566	4603
593.81642	4560
593.66717	4564
593.51792	4453
593.36867	4577
593.21941	4547
593.07015	4562
592.92088	4587
592.77161	4530
592.62233	4594
592.47305	4568
592.32377	4501
592.17448	4550
592.02518	4570
591.87588	4542
591.72658	4540
591.57727	4514
591.42796	4496
591.27864	4547
591.12932	4559
590.97999	4582
590.83066	4469
590.68133	4559
590.53199	4538
590.38264	4583
590.23329	4506
590.08394	4547
589.93458	4580
589.78522	4634
589.63585	4566
589.48648	4555
589.33711	4599
589.18772	4526
589.03834	4589
588.88895	4549
588.73956	4543
588.59016	4560
588.44075	4584
588.29135	4529
588.14193	4514
587.99252	4588
587.8431	4570
587.69367	4559
587.54424	4479
587.39481	4548
587.24537	4661
587.09592	4568
586.94647	4582
586.79702	4563
586.64756	4560
586.4981	4535
586.34863	4550
586.19916	4566
586.04969	4535
585.90021	4530
585.75072	4482
585.60123	4524
585.45174	4630
585.30224	4543
585.15274	4568
585.00323	4521
584.85372	4585
584.7042	4573
584.55468	4530
584.40516	4482
584.25563	4574
584.10609	4585
583.95655	4462
583.80701	4557
583.65746	4545
583.50791	4548
583.35835	4568
583.20879	4580
583.05923	4536
582.90966	4531
582.76008	4470
582.6105	4493
582.46092	4595
582.31133	4499
582.16173	4578
582.01214	4536
581.86253	4529
581.71293	4488
581.56332	4487
581.4137	4540
581.26408	4627
581.11445	4557
580.96483	4530
580.81519	4524
580.66555	4553
580.51591	4510
580.36626	4535
580.21661	4593
580.06695	4556
579.91729	4557
579.76763	4508
579.61796	4594
579.46828	4523
579.3186	4541
579.16892	4578
579.01923	4559
578.86954	4636
578.71984	4562
578.57014	4532
578.42043	4595
578.27072	4578
578.12101	4449
577.97129	4504
577.82156	4528
577.67183	4584
577.5221	4487
577.37236	4541
577.22262	4529
577.07287	4635
576.92312	4515
576.77336	4515
576.6236	4548
576.47384	4483
576.32407	4498
576.17429	4493
576.02452	4551
575.87473	4608
575.72494	4511
575.57515	4485
575.42536	4475
575.27555	4512
575.12575	4511
574.97594	4537
574.82612	4565
574.6763	4578
574.52648	4514
574.37665	4505
574.22682	4552
574.07698	4544
573.92714	4544
573.77729	4511
573.62744	4572
573.47758	4591
573.32772	4457
573.17786	4584
573.02799	4588
572.87812	4607
572.72824	4538
572.57836	4508
572.42847	4533
572.27858	4506
572.12868	4500
571.97878	4482
571.82887	4533
571.67896	4481
571.52905	4568
571.37913	4544
571.22921	4599
571.07928	4514
570.92935	4532
570.77941	4492
570.62947	4581
570.47952	4546
570.32957	4501
570.17962	4550
570.02966	4617
569.87969	4577
569.72972	4491
569.57975	4618
569.42977	4583
569.27979	4580
569.1298	4587
568.97981	4561
568.82981	4604
568.67981	4543
568.52981	4495
568.3798	4544
568.22979	4545
568.07977	4548
567.92974	4527
567.77972	4633
567.62968	4602
567.47965	4557
567.32961	4513
567.17956	4601
567.02951	4603
566.87946	4601
566.7294	4579
566.57933	4515
566.42926	4551
566.27919	4518
566.12911	4611
565.97903	4609
565.82895	4560
565.67885	4602
565.52876	4576
565.37866	4486
565.22855	4572
565.07845	4647
564.92833	4574
564.77821	4553
564.62809	4548
564.47796	4584
564.32783	4536
564.1777	4635
564.02756	4619
563.87741	4577
563.72726	4609
563.57711	4559
563.42695	4501
563.27678	4547
563.12662	4552
562.97644	4651
